,Open,Close,sma200,rsi,atr,prob_up,cash,holdings,borrowed_margin,total,signal,stop_loss,benchmark
2018-08-23 00:00:00+00:00,116.70999908447266,116.4000015258789,112.37560009002685,31.076921733578644,2.8257146562848825,0.475099,10000.0,0.0,0.0,10000.0,0,0.0,10000.0
2018-08-24 00:00:00+00:00,117.63999938964844,117.45999908447266,112.4228001022339,35.086844461291534,2.575000217982707,0.3967862,10000.0,0.0,0.0,10000.0,0,0.0,10091.06508115965
2018-08-27 00:00:00+00:00,117.58999633789062,118.6500015258789,112.47965011596679,33.67139441252168,2.538571493966244,0.59579825,10000.0,0.0,0.0,10000.0,0,0.0,10193.298966538223
2018-08-28 00:00:00+00:00,118.62999725341795,117.97000122070312,112.55125011444092,35.81943720441798,2.489286150251121,0.5585382,-10.0,9995.002498750626,0.0,9985.002498750626,1,111.03428704398017,10134.879697099932
2018-08-29 00:00:00+00:00,119.04000091552734,118.77999877929688,112.61720012664794,37.62887874773137,2.4200008937290787,0.4063225,-10.0,10063.629501703523,0.0,10053.629501703523,0,111.03428704398017,10204.467115310888
2018-08-30 00:00:00+00:00,118.13999938964844,118.91000366210938,112.68820011138916,41.06329422671732,2.3850005013602162,0.46162263,-10.0,10074.644158947865,0.0,10064.644158947865,0,111.51999609810964,10215.635919529814
2018-08-31 00:00:00+00:00,118.56999969482422,118.2300033569336,112.76045013427735,40.061813003143556,2.37142944335938,0.5410954,-10.0,10017.031166839239,0.0,10007.031166839239,0,111.75500215802873,10157.216650091523
2018-09-04 00:00:00+00:00,119.04000091552734,117.68000030517578,112.8392501449585,41.3170605381489,2.2914297921317006,0.42383146,-10.0,9970.43218557488,0.0,9960.43218557488,0,111.75500215802873,10109.9655294259
2018-09-05 00:00:00+00:00,116.80999755859376,117.88999938964844,112.92085014343262,34.868064257191264,2.329286847795763,0.46400422,-10.0,9988.224347584888,0.0,9978.224347584888,0,111.75500215802873,10128.00668764925
2018-09-06 00:00:00+00:00,117.77999877929688,115.5,113.00315013885498,61.790151551328734,1.8778582981654626,0.5422973,-10.0,9785.731767908994,0.0,9775.731767908994,0,111.75500215802873,9922.68028229546
2018-09-07 00:00:00+00:00,114.9800033569336,114.47000122070312,113.07245014190674,48.334674100079795,1.970001220703128,0.56440544,-10.0,9698.465172450355,0.0,9688.465172450355,0,111.75500215802873,9834.192415818252
2018-09-10 00:00:00+00:00,115.0,114.31999969482422,113.13760013580323,48.77051101981238,1.9057159423828136,0.59853953,-10.0,9685.756300614614,0.0,9675.756300614614,0,111.75500215802873,9821.305686959788
2018-09-11 00:00:00+00:00,114.38999938964844,116.22000122070312,113.2009001159668,48.17815090203446,1.9207158769880022,0.5457165,-10.0,9846.733835600491,0.0,9836.733835600491,0,111.75500215802873,9984.536056459094
2018-09-12 00:00:00+00:00,117.29000091552734,116.94000244140624,113.27405014038087,52.69771991752025,2.009286608014789,0.61181164,-10.0,9907.735903291987,0.0,9897.735903291987,0,111.75500215802873,10046.391830622724
2018-09-13 00:00:00+00:00,116.8000030517578,116.62000274658205,113.35045013427734,48.4702211055894,2.040714808872767,0.48237172,-10.0,9880.62394502911,0.0,9870.62394502911,0,111.75500215802873,10018.900448266253
2018-09-14 00:00:00+00:00,116.56999969482422,117.81999969482422,113.43445014953613,50.93063063855429,2.077857426234651,0.48712012,-10.0,9982.293626914887,0.0,9972.293626914887,0,111.75500215802873,10121.992968241466
2018-09-17 00:00:00+00:00,118.31999969482422,117.54000091552734,113.5243501663208,51.50501842315864,2.032857622419083,0.51246876,-10.0,9958.570744234878,0.0,9948.570744234878,0,111.75500215802873,10097.938090610334
2018-09-18 00:00:00+00:00,118.75,119.4499969482422,113.60955017089844,44.97737418527519,2.03142874581473,0.4690529,-10.0,10120.395063316419,0.0,10110.395063316419,0,111.75500215802873,10262.027094706285
2018-09-19 00:00:00+00:00,119.4499969482422,120.16999816894533,113.69520015716553,56.02604182854445,2.088571275983535,0.53025454,-10.0,10181.397131007914,0.0,10171.397131007914,0,113.35571071079801,10323.882868869918
2018-09-20 00:00:00+00:00,120.43000030517578,119.20999908447266,113.78150012969971,55.701390933964674,2.0821429661342057,0.4876745,-10.0,10100.061256219276,0.0,10090.061256219276,0,113.90428434099472,10241.408721800493
2018-09-21 00:00:00+00:00,118.5199966430664,119.45999908447266,113.87230010986327,51.15205644500216,2.145714351109093,0.5309067,-10.0,10121.242493812153,0.0,10111.242493812153,0,113.90428434099472,10262.886384749183
2018-09-24 00:00:00+00:00,121.41999816894533,123.98999786376952,113.96510009765625,54.88481367663514,2.240713936941962,0.6078675,-10.0,10505.046415571065,0.0,10495.046415571065,0,113.90428434099472,10652.061532508073
2018-09-25 00:00:00+00:00,124.58000183105467,125.63999938964844,114.09075008392334,69.04043626497956,2.3928571428571397,0.6721813,-10.0,10644.842712964068,0.0,10634.842712964068,0,117.26785605294363,10793.81423905869
2018-09-26 00:00:00+00:00,125.4499969482422,125.30999755859376,114.22035007476806,71.51583109882668,2.426428658621649,0.6062323,10590.957999219145,0.0,0.0,10590.957999219145,-1,0.0,10765.463566659317
2018-09-27 00:00:00+00:00,126.56999969482422,127.0,114.34495006561279,80.75234932071214,2.315714154924661,0.47971892,-10.590957999218517,10585.665166635827,0.0,10575.074208636608,1,118.03071158272881,10910.652777935273
2018-09-28 00:00:00+00:00,126.5500030517578,127.56999969482422,114.47390007019042,87.71823695488594,2.3542856488909,0.56458944,-10.590957999218517,10633.17560690743,0.0,10622.584648908212,0,120.05285753522602,10959.621823240437
2018-10-01 00:00:00+00:00,127.93000030517578,129.49000549316406,114.61035007476806,88.90194053806576,2.441428048270087,0.5416925,-10.590957999218517,10793.2113431218,0.0,10782.620385122582,0,120.50714274815152,11124.570772825544
2018-10-02 00:00:00+00:00,129.75,130.0,114.75810009002686,88.91496156830088,2.38071387154715,0.52626437,-10.590957999218517,10835.720249312262,0.0,10825.129291313044,0,122.1657213483538,11168.384733319568
2018-10-03 00:00:00+00:00,130.1699981689453,130.3800048828125,114.90990009307862,88.77672326662733,2.2699993678501635,0.62938803,-10.590957999218517,10867.394300108639,0.0,10856.80334210942,0,122.85785838535855,11201.031200487183
2018-10-04 00:00:00+00:00,129.9199981689453,130.22999572753906,115.06905010223389,90.71006180863341,2.21214185442243,0.67599607,-10.590957999218517,10854.890782867265,0.0,10844.299824868047,0,123.570006779262,11188.14381618246
2018-10-05 00:00:00+00:00,130.33999633789062,131.0500030517578,115.22065006256103,89.14821854207992,2.1699987139020616,0.58353376,-10.590957999218517,10923.2397826182,0.0,10912.648824618982,0,123.59357016427177,11258.591179882578
2018-10-08 00:00:00+00:00,129.97999572753906,129.8300018310547,115.36875007629395,91.21410546204423,2.157141549246649,0.46956405,-10.590957999218517,10821.550613915442,0.0,10810.959655916224,0,124.54000691005163,11153.780079821563
2018-10-09 00:00:00+00:00,130.22000122070312,132.35000610351562,115.50020008087158,83.05728255280013,2.110712868826728,0.44454196,-10.590957999218517,11031.597239480507,0.0,11021.006281481288,0,124.54000691005163,11370.275289394276
2018-10-10 00:00:00+00:00,132.0,126.47000122070312,115.63020011901855,84.79996197709926,2.2721410478864366,0.50195676,-10.590957999218517,10541.488870443996,0.0,10530.897912444778,0,126.01786749703544,10865.120237355448
2018-10-11 00:00:00+00:00,125.29000091552734,121.62000274658205,115.72700012207031,66.19087951526335,2.5421415056501098,0.4008265,10111.436472714846,0.0,0.0,10111.436472714846,-1,0.0,10448.453707240087
2018-10-12 00:00:00+00:00,123.62000274658205,122.18000030517578,115.78805011749267,53.99704085761162,2.76214163643973,0.42594442,10111.436472714846,0.0,0.0,10111.436472714846,0,0.0,10496.563462502352
2018-10-15 00:00:00+00:00,122.9499969482422,122.56999969482422,115.8571501159668,46.073763722644436,2.6671415056501115,0.30655015,10111.436472714846,0.0,0.0,10111.436472714846,0,0.0,10530.06856426661
2018-10-16 00:00:00+00:00,122.86000061035156,122.26000213623048,115.9277501296997,42.955495026586455,2.602855682373046,0.5076133,10111.436472714846,0.0,0.0,10111.436472714846,0,0.0,10503.436471953037
2018-10-17 00:00:00+00:00,122.20999908447266,120.13999938964844,115.99950012207032,42.9949664254878,2.6064278738839284,0.28251305,10111.436472714846,0.0,0.0,10111.436472714846,0,0.0,10321.305654187478
2018-10-18 00:00:00+00:00,118.5500030517578,118.5500030517578,116.05370010375977,34.549567287966696,2.7321417672293546,0.5839592,10111.436472714846,0.0,0.0,10111.436472714846,0,0.0,10184.708032448003
2018-10-19 00:00:00+00:00,118.58999633789062,117.66999816894533,116.09180011749268,30.577116109732046,2.735713413783484,0.43723586,-10.111436472714558,10106.38328107431,0.0,10096.271844601595,1,110.35357775006973,10109.106239383005
2018-10-22 00:00:00+00:00,118.0999984741211,116.25,116.1254001235962,23.354384659950327,2.8307135445731055,0.5613713,-10.111436472714558,9984.423172490126,0.0,9974.311736017411,0,110.35357775006973,9987.113271141538
2018-10-23 00:00:00+00:00,114.16999816894533,111.12000274658205,116.14580013275146,20.225240345899138,2.946428026471822,0.55659664,-10.111436472714558,9543.820476130237,0.0,9533.709039657522,0,110.35357775006973,9546.391863395042
2018-10-24 00:00:00+00:00,111.77999877929688,106.13999938964844,116.13785015106201,15.409502809136796,3.3342857360839875,0.64956826,-10.111436472714558,9116.10038222876,0.0,9105.988945756046,0,110.35357775006973,9118.556529060754
2018-10-25 00:00:00+00:00,107.87000274658205,107.12000274658205,116.11000015258789,13.131333888880903,3.6614287240164662,0.70529705,9176.35858936547,0.0,0.0,9176.35858936547,-1,0.0,9202.749256215977
2018-10-26 00:00:00+00:00,105.58999633789062,106.55999755859376,116.08555015563965,13.554685638479441,3.7485716683524037,0.7503602,-9.176358589365918,9171.772703013965,0.0,9162.596344424599,1,101.62785966055735,9154.638845507452
2018-10-29 00:00:00+00:00,106.9499969482422,102.04000091552734,116.04265014648438,13.832771899332272,3.8750005449567584,0.688853,-9.176358589365918,8782.730071835264,0.0,8773.553713245898,0,101.62785966055735,8766.322987791464
2018-10-30 00:00:00+00:00,101.69000244140624,105.51000213623048,115.9743501663208,5.6482293754555855,4.065715244838176,0.67153907,-9.176358589365918,9081.39808238932,0.0,9072.221723799954,0,101.62785966055735,9064.433054390702
2018-10-31 00:00:00+00:00,106.68000030517578,105.33999633789062,115.9349501800537,17.002522551724866,4.003572191510889,0.7028941,-9.176358589365918,9066.765438092287,0.0,9057.58907950292,0,101.62785966055735,9049.827745446435
2018-11-01 00:00:00+00:00,105.9800033569336,106.88999938964844,115.89400016784668,19.940914472302993,3.860715048653746,0.5939576,-9.176358589365918,9200.176436641566,0.0,9191.0000780522,0,101.62785966055735,9182.989517906826
2018-11-02 00:00:00+00:00,106.1500015258789,102.3499984741211,115.85725017547607,22.76453015534193,3.8642866952078734,0.6823696,-9.176358589365918,8809.412008875925,0.0,8800.235650286559,0,101.62785966055735,8792.955080105039
2018-11-05 00:00:00+00:00,104.54000091552734,106.3499984741211,115.79715015411377,18.621988082944654,4.181429726736892,0.70372367,-9.176358589365918,9153.697778889038,0.0,9144.521420299672,0,101.62785966055735,9136.597687284102
2018-11-06 00:00:00+00:00,107.05999755859376,107.33000183105467,115.74480014801026,27.847402840506447,4.42000089372908,0.65610385,-9.176358589365918,9238.048081478366,0.0,9228.871722889,0,101.62785966055735,9220.790414439323
2018-11-07 00:00:00+00:00,109.25,109.1500015258789,115.69225017547608,31.5789612255397,4.277143750871937,0.5877995,-9.176358589365918,9394.698080567414,0.0,9385.521721978048,0,101.62785966055735,9377.147774487948
2018-11-08 00:00:00+00:00,108.7300033569336,104.8499984741211,115.64565017700195,36.57143517172324,4.297143663678858,0.41492712,-9.176358589365918,9024.59061513412,0.0,9015.414256544755,0,102.734285899571,9007.731709591952
2018-11-09 00:00:00+00:00,103.08999633789062,105.51000213623048,115.58265018463135,33.31599079983029,4.358572278703968,0.49158657,-9.176358589365918,9081.398082389322,0.0,9072.221723799956,0,102.734285899571,9064.433054390702
2018-11-12 00:00:00+00:00,106.83999633789062,101.25,115.52140018463135,35.740851974138224,4.4142870221819255,0.54850477,-9.176358589365918,8714.733553456917,0.0,8705.557194867552,0,102.734285899571,8698.453494220046
2018-11-13 00:00:00+00:00,101.22000122070312,98.5199966430664,115.44475017547607,36.58603653879334,4.357143947056369,0.58816814,8457.862230557754,0.0,0.0,8457.862230557754,-1,0.0,8463.917126423981
2018-11-14 00:00:00+00:00,100.75,98.06999969482422,115.36150016784669,38.96931700477604,4.241430010114405,0.42075968,-8.457862230558021,8453.635412851329,0.0,8445.17755062077,1,91.98428072248186,8425.25759529484
2018-11-15 00:00:00+00:00,97.91000366210938,101.58999633789062,115.2768501663208,36.69509498112875,4.322858537946437,0.5124506,-8.457862230558021,8757.059175138895,0.0,8748.601312908337,0,91.98428072248186,8727.662801216064
2018-11-16 00:00:00+00:00,103.0,105.1999969482422,115.20220016479492,43.27833512777596,4.413572583879748,0.5554399,-8.457862230558021,9068.241280727232,0.0,9059.783418496674,0,95.10570853097097,9037.80030663087
2018-11-19 00:00:00+00:00,103.98999786376952,105.70999908447266,115.16405014038087,54.38157825763875,4.2442866734096025,0.65780085,-8.457862230558021,9112.203472354475,0.0,9103.745610123917,0,98.57963807242258,9081.61492257115
2018-11-20 00:00:00+00:00,103.4499969482422,102.36000061035156,115.14480014801025,50.3021099966139,4.057857513427737,0.52082205,-8.457862230558021,8823.433554724685,0.0,8814.975692494127,0,99.34356907435826,8793.814370147937
2018-11-21 00:00:00+00:00,103.29000091552734,106.0,115.11525016784668,45.893061499789205,4.107142857142859,0.489637,-8.457862230558021,9137.201555528636,0.0,9128.743693298078,0,99.34356907435826,9106.529090245183
2018-11-23 00:00:00+00:00,101.62999725341795,100.6999969482422,115.1163501739502,48.84024087784299,4.232856750488284,0.59073055,-8.457862230558021,8680.341214690638,0.0,8671.88335246008,0,99.83928571428571,8651.202373554423
2018-11-26 00:00:00+00:00,101.6999969482422,102.54000091552734,115.11465015411378,47.891641963179644,4.273571014404301,0.57363737,-8.457862230558021,8838.949583672304,0.0,8830.491721441746,0,99.83928571428571,8809.278313688843
2018-11-27 00:00:00+00:00,102.26000213623048,101.9499969482422,115.12700016021728,44.847178980887215,4.078571319580081,0.513456,-8.457862230558021,8788.091233034134,0.0,8779.633370803576,0,99.83928571428571,8758.59068829788
2018-11-28 00:00:00+00:00,101.98999786376952,103.7699966430664,115.12105014801026,42.646251543851385,4.092856815883094,0.44185746,-8.457862230558021,8944.975233436111,0.0,8936.517371205553,0,99.83928571428571,8914.948048346503
2018-11-29 00:00:00+00:00,103.97000122070312,105.47000122070312,115.12755012512207,42.64625154385134,4.0649997166224905,0.6024755,-8.457862230558021,9091.515652975622,0.0,9083.057790745064,0,99.83928571428571,9060.99654966536
2018-11-30 00:00:00+00:00,104.38999938964844,103.30999755859376,115.12110012054444,50.912304893308104,3.9628568376813638,0.5171302,-8.457862230558021,8905.323305604177,0.0,8896.86544337362,0,99.83928571428571,8875.429227174463
2018-12-03 00:00:00+00:00,107.11000061035156,108.11000061035156,115.09920009613037,46.89965695511924,3.8814283098493325,0.529618,-8.457862230558021,9319.083639104778,0.0,9310.62577687422,0,99.83928571428571,9287.800617967843
2018-12-04 00:00:00+00:00,108.31999969482422,104.06999969482422,115.10155010223389,59.52248318845774,3.820714133126394,0.72841537,-8.457862230558021,8970.83550090012,0.0,8962.377638669563,0,102.28785814557756,8940.721506063437
2018-12-06 00:00:00+00:00,101.4499969482422,102.12999725341795,115.08210010528565,57.43370011965472,3.8778566632951987,0.48466113,8781.943988858226,0.0,0.0,8781.943988858226,-1,0.0,8774.054631838788
2018-12-07 00:00:00+00:00,104.76000213623048,103.61000061035156,115.06370010375977,55.22925707779528,3.924285343715119,0.43238902,8781.943988858226,0.0,0.0,8781.943988858226,0,0.0,8901.202684891396
2018-12-10 00:00:00+00:00,102.0500030517578,101.70999908447266,115.04630012512207,52.74606125878709,3.9499996730259466,0.6021971,8781.943988858226,0.0,0.0,8781.943988858226,0,0.0,8737.97231539209
2018-12-11 00:00:00+00:00,103.56999969482422,102.06999969482422,115.01070011138916,45.02424457023135,3.9785712105887256,0.5325494,-8.781943988858984,8777.5552112526,0.0,8768.773267263741,1,95.78499957493374,8768.900202473906
2018-12-12 00:00:00+00:00,104.23999786376952,103.93000030517578,114.97360012054443,44.788092209804965,3.9885711669921875,0.49814883,-8.781943988858984,8937.50679447135,0.0,8928.724850482491,0,96.10214287894112,8928.694067247872
2018-12-13 00:00:00+00:00,103.22000122070312,102.83000183105467,114.95855010986328,52.3481876245981,4.002142769949778,0.66279954,-8.781943988858984,8842.911934397285,0.0,8834.129990408426,0,97.9471435546875,8834.19248136288
2018-12-14 00:00:00+00:00,102.27999877929688,100.08000183105467,114.96560012817383,44.868897537939816,3.832857404436384,0.48946935,-8.781943988858984,8606.424456165534,0.0,8597.642512176675,0,97.9471435546875,8597.938188927274
2018-12-17 00:00:00+00:00,99.54000091552734,96.20999908447266,114.96010013580322,48.906149380664296,3.637857164655412,0.436483,-8.781943988858984,8273.62184151494,0.0,8264.83989752608,0,97.9471435546875,8265.463730520878
2018-12-18 00:00:00+00:00,96.37000274658205,94.01000213623048,114.93390014648438,39.57853722567043,3.836427961077009,0.41609845,8063.523529195906,0.0,0.0,8063.523529195906,-1,0.0,8076.460558750898
2018-12-19 00:00:00+00:00,94.95999908447266,92.9800033569336,114.89490016937256,37.58600658043314,3.904285430908203,0.42028955,8063.523529195906,0.0,0.0,8063.523529195906,0,0.0,7987.972692273688
2018-12-20 00:00:00+00:00,91.52999877929688,89.73999786376953,114.85475017547607,32.702809933030395,4.072856903076171,0.4657812,8063.523529195906,0.0,0.0,8063.523529195906,0,0.0,7709.621708537341
2018-12-21 00:00:00+00:00,89.44000244140625,87.26000213623047,114.799100151062,25.97006658880349,4.167857033865792,0.44371387,8063.523529195906,0.0,0.0,8063.523529195906,0,0.0,7496.563659136225
2018-12-24 00:00:00+00:00,86.2300033569336,82.86000061035156,114.73245018005372,25.71862294096573,4.245713915143692,0.49839324,8063.523529195906,0.0,0.0,8063.523529195906,0,0.0,7118.556660150004
2018-12-26 00:00:00+00:00,83.83000183105469,88.98999786376953,114.63275016784668,11.332323246471361,4.203571319580078,0.5029496,8063.523529195906,0.0,0.0,8063.523529195906,0,0.0,7645.188719691267
2018-12-27 00:00:00+00:00,87.0999984741211,88.79000091552734,114.57445014953613,28.29591328819116,4.336428506033761,0.43870857,8063.523529195906,0.0,0.0,8063.523529195906,0,0.0,7628.006851510817
2018-12-28 00:00:00+00:00,89.23999786376953,87.5199966430664,114.51815013885498,29.78788433526566,4.295713697160994,0.45963112,8063.523529195906,0.0,0.0,8063.523529195906,0,0.0,7518.899956681561
2018-12-31 00:00:00+00:00,88.20999908447266,87.20999908447266,114.45630012512207,25.46507545173789,4.129284994942801,0.52173275,8063.523529195906,0.0,0.0,8063.523529195906,0,0.0,7492.2678643679865
2019-01-02 00:00:00+00:00,85.66000366210938,90.61000061035156,114.39910011291504,26.762818238726965,3.995713370186942,0.4739344,-8.063523529195663,8059.493782304754,0.0,8051.430258775558,1,81.01607159205845,7784.364211559442
2019-01-03 00:00:00+00:00,90.5999984741211,89.97000122070312,114.34990013122558,33.26518720737087,4.2385711669921875,0.5726768,-8.063523529195663,8002.567713804528,0.0,7994.504190275332,0,84.61643055507115,7729.3814468464925
2019-01-04 00:00:00+00:00,91.6999969482422,93.91999816894533,114.30740013122559,28.861295420191823,4.126428331647601,0.32137316,-8.063523529195663,8353.908356449263,0.0,8345.844832920067,0,84.61643055507115,8068.7282592573165
2019-01-07 00:00:00+00:00,94.48999786376952,94.51000213623048,114.27035011291504,37.58014374681046,4.232856750488281,0.39533815,-8.063523529195663,8406.387478773942,0.0,8398.323955244747,0,87.73035567147393,8119.415884648282
2019-01-08 00:00:00+00:00,95.66000366210938,95.5199966430664,114.21900012969971,41.73835679728854,4.254285539899554,0.45709103,-8.063523529195663,8496.223527699829,0.0,8488.160004170633,0,88.16071701049806,8206.18517103969
2019-01-09 00:00:00+00:00,96.77999877929688,99.19000244140624,114.1751501083374,48.88168128436757,4.037143162318638,0.6093384,8801.362265617096,0.0,0.0,8801.362265617096,-1,0.0,8521.477761265634
2019-01-10 00:00:00+00:00,98.0199966430664,99.12000274658205,114.14180011749268,58.01361440665624,4.090000697544644,0.63282436,-8.801362265616262,8796.963783725234,0.0,8788.162421459618,1,93.13428769792827,8515.464041857853
2019-01-11 00:00:00+00:00,97.86000061035156,96.87000274658205,114.09955013275146,59.78953964998906,3.890001024518694,0.49207702,-8.801362265616262,8597.274841383429,0.0,8588.473479117813,0,93.13428769792827,8322.16507531963
2019-01-14 00:00:00+00:00,95.66000366210938,98.51000213623048,114.0522501373291,61.738567710616316,3.806429726736887,0.44564512,-8.801362265616262,8742.825838521252,0.0,8734.024476255636,0,93.13428769792827,8463.058491827345
2019-01-15 00:00:00+00:00,98.97000122070312,98.58999633789062,114.02570014953614,69.04842611431788,3.810715811593195,0.61034614,-8.801362265616262,8749.925375198138,0.0,8741.124012932522,0,93.13428769792827,8469.930845831772
2019-01-16 00:00:00+00:00,98.5500030517578,98.66999816894533,113.99230014801026,81.19793942273832,3.629287174769812,0.45637,-8.801362265616262,8757.02558898868,0.0,8748.224226723063,0,93.13428769792827,8476.803855282455
2019-01-17 00:00:00+00:00,98.36000061035156,99.0500030517578,113.9710001373291,75.26096635547403,3.271429879324781,0.622314,-8.801362265616262,8790.75126593692,0.0,8781.949903671304,0,93.2260674067906,8509.450322450068
2019-01-18 00:00:00+00:00,100.3000030517578,101.0500030517578,113.94090015411376,76.52533616705361,3.1500015258789102,0.48611075,-8.801362265616262,8968.252548018525,0.0,8959.451185752909,0,94.14285823277062,8681.2716260396
2019-01-22 00:00:00+00:00,99.76000213623048,96.86000061035156,113.92530017852783,83.70704188360513,3.088572910853801,0.6524791,-8.801362265616262,8596.387145381195,0.0,8587.585783115579,0,96.32500076293944,8321.305785276729
2019-01-23 00:00:00+00:00,97.6500015258789,96.56999969482422,113.8877001953125,70.14613711791421,3.2235734122140127,0.5870628,-8.801362265616262,8570.649378225724,0.0,8561.848015960108,0,96.32500076293944,8296.391617602694
2019-01-24 00:00:00+00:00,96.5199966430664,97.23999786376952,113.86090019226074,64.29941926121597,2.9542873927525184,0.5720064,-8.801362265616262,8630.112145215782,0.0,8621.310782950166,0,96.32500076293944,8353.951596998084
2019-01-25 00:00:00+00:00,98.19000244140624,99.0999984741211,113.8302001953125,67.4173351327646,2.904287610735218,0.562686,-8.801362265616262,8795.188391720767,0.0,8786.38702945515,0,96.32500076293944,8513.74546177205
2019-01-28 00:00:00+00:00,97.43000030517578,98.0999984741211,113.78740016937256,63.79126340711026,2.8135735648019042,0.60251015,-8.801362265616262,8706.437750679965,0.0,8697.636388414348,0,96.32500076293944,8427.834809977285
2019-01-29 00:00:00+00:00,98.5999984741211,98.87000274658205,113.73090015411377,59.35381938379172,2.700716291155142,0.53832537,-8.801362265616262,8774.77612346503,0.0,8765.974761199413,0,96.32500076293944,8493.98637890916
2019-01-30 00:00:00+00:00,99.69000244140624,99.4499969482422,113.675350151062,58.83906053797993,2.692859104701459,0.53193235,-8.801362265616262,8826.250980662318,0.0,8817.449618396702,0,96.32500076293944,8543.814058810969
2019-01-31 00:00:00+00:00,99.94000244140624,99.1999969482422,113.6175001525879,50.81965477745103,2.5171443394252293,0.4629405,-8.801362265616262,8804.063320402118,0.0,8795.261958136502,0,96.32500076293944,8522.336395862278
2019-02-01 00:00:00+00:00,99.87000274658205,98.8499984741211,113.55840015411377,50.249358465359364,2.532858712332595,0.43061554,-8.801362265616262,8773.000731460566,0.0,8764.19936919495,0,96.32500076293944,8492.267798823359
2019-02-04 00:00:00+00:00,97.75,99.37999725341795,113.49690013885498,57.00139961601596,2.4457152230399046,0.4345682,-8.801362265616262,8820.038462874005,0.0,8811.237100608389,0,96.32500076293944,8537.800339403184
2019-02-05 00:00:00+00:00,99.2300033569336,98.3499984741211,113.42955013275146,53.338431301606555,2.371429443359379,0.4771227,-8.801362265616262,8728.625410940165,0.0,8719.824048674549,0,96.32500076293944,8449.312472925976
2019-02-06 00:00:00+00:00,97.48999786376952,96.18000030517578,113.35110012054443,49.14163874278876,2.3600006103515665,0.39810824,-8.801362265616262,8536.036682388902,0.0,8527.235320123285,0,96.32500076293944,8262.886515838436
2019-02-07 00:00:00+00:00,95.45999908447266,92.98999786376952,113.26215011596679,42.252651175361876,2.382143838065012,0.43550897,8231.741175645568,0.0,0.0,8231.741175645568,-1,0.0,7988.83132687033
2019-02-08 00:00:00+00:00,92.66999816894533,92.5,113.1529001235962,33.95125510984427,2.5400009155273446,0.38725758,8231.741175645568,0.0,0.0,8231.741175645568,0,0.0,7946.735291015847
2019-02-11 00:00:00+00:00,91.62999725341795,94.20999908447266,113.04245014190674,25.388585331240208,2.612143380301338,0.5203455,8231.741175645568,0.0,0.0,8231.741175645568,0,0.0,8093.642426931347
2019-02-12 00:00:00+00:00,95.77999877929688,95.62999725341795,112.93650012969971,41.10140029055141,2.492142813546316,0.42970926,-8.231741175644856,8227.627361964585,0.0,8219.39562078894,1,90.29178401402065,8215.635395172812
2019-02-13 00:00:00+00:00,96.1500015258789,96.75,112.82655010223388,47.06615765490883,2.53642872401646,0.4664369,-8.231741175644856,8323.98797587148,0.0,8315.756234695835,0,91.89178303309848,8311.855561143604
2019-02-14 00:00:00+00:00,96.33000183105467,96.95999908447266,112.72635009765625,48.512452775371926,2.5292859758649553,0.45184898,-8.231741175644856,8342.055467903465,0.0,8333.82372672782,0,92.9453569139753,8329.896719366954
2019-02-15 00:00:00+00:00,98.22000122070312,100.25,112.62030010223388,42.78002518018139,2.4235714503696975,0.5015099,-8.231741175644856,8625.114155877169,0.0,8616.882414701524,0,93.16607012067523,8612.542842425286
2019-02-19 00:00:00+00:00,99.0,99.70999908447266,112.53375011444092,56.28288254324791,2.4728573390415725,0.6402815,-8.231741175644856,8578.654609336505,0.0,8570.42286816086,0,96.61464282444545,8566.15101180256
2019-02-20 00:00:00+00:00,99.58000183105467,98.77999877929688,112.44905010223388,52.488142336371666,2.48785672869001,0.5093355,-8.231741175644856,8498.641055250304,0.0,8490.409314074659,0,96.61464282444545,8486.254079415578
2019-02-21 00:00:00+00:00,98.33999633789062,95.3499984741211,112.36290008544921,48.05572160061533,2.477856772286551,0.48992527,-8.231741175644856,8203.537372588613,0.0,8195.305631412968,0,96.61464282444545,8191.580517541681
2019-02-22 00:00:00+00:00,96.43000030517578,95.52999877929688,112.26635005950928,40.56835075056868,2.6171422685895647,0.58375096,8198.463611094368,0.0,0.0,8198.463611094368,-1,0.0,8207.04446108259
2019-02-25 00:00:00+00:00,95.12999725341795,94.75,112.17455005645752,41.7984188576978,2.6214283534458707,0.6328344,-8.198463611093757,8194.366427880428,0.0,8186.167964269334,1,91.60428537641253,8140.034257554074
2019-02-26 00:00:00+00:00,94.98999786376952,93.91000366210938,112.07185005187988,38.701811280594654,2.539285387311662,0.6400501,-8.198463611093757,8121.720118743188,0.0,8113.521655132095,0,91.60428537641253,8067.869624660674
2019-02-27 00:00:00+00:00,95.54000091552734,95.04000091552734,111.9524500656128,39.06404971841955,2.5692852565220434,0.65610456,-8.198463611093757,8219.446889793377,0.0,8211.248426182283,0,91.60428537641253,8164.948425228107
2019-02-28 00:00:00+00:00,95.37000274658205,94.0,111.83290008544923,47.04049917937164,2.7264278956822006,0.7220238,-8.198463611093757,8129.503369084541,0.0,8121.304905473447,0,91.60428537641253,8075.601268707999
2019-03-01 00:00:00+00:00,94.63999938964844,96.41999816894533,111.71585006713867,52.95149780561554,2.641428266252792,0.72320306,-8.198463611093757,8338.794680442195,0.0,8330.596216831102,0,91.60428537641253,8283.504888744234
2019-03-04 00:00:00+00:00,96.70999908447266,96.80999755859376,111.60455005645753,60.29411646408535,2.618571690150673,0.7259026,-8.198463611093757,8372.523418230365,0.0,8364.324954619271,0,92.45785576956614,8317.009990508492
2019-03-05 00:00:00+00:00,97.04000091552734,95.5,111.48745002746583,57.33634145835964,2.602142878941128,0.59947926,-8.198463611093757,8259.229486676317,0.0,8251.031023065223,0,92.88214002336775,8204.46724640015
2019-03-06 00:00:00+00:00,94.91999816894533,91.94000244140624,111.35745002746582,49.63089918619447,2.539285932268414,0.5849363,-8.198463611093757,7951.346378734607,0.0,7943.1479151235135,0,92.88214002336775,7898.625535753584
2019-03-07 00:00:00+00:00,92.06999969482422,91.3499984741211,111.18640003204345,38.00498631389519,2.6664287022181887,0.70786256,7880.271485119689,0.0,0.0,7880.271485119689,-1,0.0,7847.93791036262
2019-03-08 00:00:00+00:00,89.31999969482422,86.44000244140625,111.01420001983642,36.27018447731139,2.6635714939662387,0.6783547,-7.88027148511992,7876.333318460459,0.0,7868.453046975339,1,87.35035542079382,7426.116950882372
2019-03-11 00:00:00+00:00,86.7699966430664,86.26000213623047,110.80915004730224,18.68479545480608,2.796428135463169,0.6107534,7840.261687356221,0.0,0.0,7840.261687356221,-1,0.0,7410.653007341464
2019-03-12 00:00:00+00:00,86.93000030517578,86.9800033569336,110.62165004730224,18.994917250220553,2.786428724016461,0.5082139,-7.84026168735636,7836.3435155984225,0.0,7828.503253911066,1,82.06535993303572,7472.508781505097
2019-03-13 00:00:00+00:00,88.0,88.56999969482422,110.44165004730225,22.532583889063048,2.7857142857142847,0.59086406,-7.84026168735636,7979.592044126575,0.0,7971.751782439219,0,82.8003602709089,7609.106403244572
2019-03-14 00:00:00+00:00,88.62000274658203,89.69000244140625,110.2846000289917,32.73929669433777,2.6207144601004453,0.69712114,-7.84026168735636,8080.497147850407,0.0,8072.65688616305,0,84.39142826625279,7705.326569215364
2019-03-15 00:00:00+00:00,89.11000061035156,88.8499984741211,110.14425003051758,35.81146708141311,2.6000006539481015,0.5740054,-7.84026168735636,8004.818148217587,0.0,7996.9778865302305,0,85.75893075125558,7633.161280875706
2019-03-18 00:00:00+00:00,89.0199966430664,91.91999816894533,110.00745002746582,35.70735493644858,2.6585720607212613,0.7419127,-7.84026168735636,8281.40553926081,0.0,8273.565277573452,0,85.75893075125558,7896.90695566779
2019-03-19 00:00:00+00:00,92.81999969482422,92.87999725341795,109.8682500076294,45.649309315010136,2.7421439034598194,0.578262,-7.84026168735636,8367.895333584182,0.0,8360.055071896826,0,87.93214007786344,7979.381102737211
2019-03-20 00:00:00+00:00,93.0500030517578,95.88999938964844,109.74360000610352,45.24228204016689,2.5078582763671835,0.5008757,-7.84026168735636,8639.077327282124,0.0,8631.237065594767,0,88.76678139822823,8237.972348164409
2019-03-21 00:00:00+00:00,95.81999969482422,96.87000274658205,109.63130001068116,53.83056248159823,2.545715332031246,0.46128753,8706.438063204652,0.0,0.0,8706.438063204652,-1,0.0,8322.165075319634
2019-03-22 00:00:00+00:00,95.75,93.68000030517578,109.52230003356934,50.968584828196505,2.533572605678008,0.41295412,8706.438063204652,0.0,0.0,8706.438063204652,0,0.0,8048.109886351526
2019-03-25 00:00:00+00:00,93.5500030517578,92.77999877929688,109.40780002593993,43.987713246193195,2.646430424281527,0.3652364,8706.438063204652,0.0,0.0,8706.438063204652,0,0.0,7970.790168646986
2019-03-26 00:00:00+00:00,94.4499969482422,94.7699966430664,109.29100002288818,44.691646915754205,2.655000959123882,0.4750626,8706.438063204652,0.0,0.0,8706.438063204652,0,0.0,8141.752182193619
2019-03-27 00:00:00+00:00,94.31999969482422,94.58999633789062,109.17520000457763,55.88356121253879,2.6028578622000538,0.4806131,8706.438063204652,0.0,0.0,8706.438063204652,0,0.0,8126.288238652712
2019-03-28 00:00:00+00:00,93.80999755859376,95.23999786376952,109.05979999542237,56.852785321864964,2.622143336704796,0.42583254,8706.438063204652,0.0,0.0,8706.438063204652,0,0.0,8182.130293408561
2019-03-29 00:00:00+00:00,96.37999725341795,95.18000030517578,108.94594997406006,72.70379189586342,2.378572191510879,0.41392657,8706.438063204652,0.0,0.0,8706.438063204652,0,0.0,8176.975864043678
2019-04-01 00:00:00+00:00,96.19000244140624,96.94000244140624,108.82949996948243,73.15678516118204,2.3785721915108775,0.39543614,8706.438063204652,0.0,0.0,8706.438063204652,0,0.0,8328.178794727417
2019-04-02 00:00:00+00:00,97.08000183105467,96.0500030517578,108.72294998168945,74.53200453641428,2.420715332031246,0.5320468,8706.438063204652,0.0,0.0,8706.438063204652,0,0.0,8251.718367065776
2019-04-03 00:00:00+00:00,96.6500015258789,93.93000030517578,108.61555000305175,69.0816278420247,2.410714830671033,0.32319903,-8.706438063205496,8702.087019694805,0.0,8693.3805816316,1,92.41893005371092,8069.587549300221
2019-04-04 00:00:00+00:00,94.05999755859376,93.66999816894533,108.51430000305176,60.29125008617749,2.4935716901506644,0.38580367,-8.706438063205496,8677.999281938679,0.0,8669.292843875473,0,92.41893005371092,8047.2505963086305
2019-04-05 00:00:00+00:00,94.4499969482422,98.62999725341795,108.39954998016357,62.03795411490355,2.437857491629458,0.4383043,-8.706438063205496,9137.515341881766,0.0,9128.80890381856,0,92.41893005371092,8473.367350557117
2019-04-08 00:00:00+00:00,99.12000274658205,99.4800033569336,108.30729995727539,65.31263264397734,2.5607147216796826,0.5463188,-8.706438063205496,9216.263633759045,0.0,9207.55719569584,0,94.97321101597376,8546.391928939674
2019-04-09 00:00:00+00:00,98.79000091552734,98.56999969482422,108.20754997253418,65.13761595901667,2.642857687813892,0.51436913,-8.706438063205496,9131.956905022875,0.0,9123.25046695967,0,95.63893127441406,8468.212921192235
2019-04-10 00:00:00+00:00,99.33999633789062,98.7300033569336,108.11739997863769,56.80202437824441,2.529285975864952,0.41155744,-8.706438063205496,9146.780345740663,0.0,9138.073907677457,0,95.63893127441406,8481.958940093598
2019-04-11 00:00:00+00:00,98.37999725341795,98.7300033569336,108.01849998474121,54.92584381495223,2.4442858014787907,0.44850376,-8.706438063205496,9146.780345740663,0.0,9138.073907677457,0,95.63893127441406,8481.958940093598
2019-04-12 00:00:00+00:00,102.08999633789062,105.30999755859376,107.9279999923706,66.09304446432961,2.302142551967072,0.43375015,-8.706438063205496,9756.3798554383,0.0,9747.673417375094,0,95.63893127441406,9047.250530764006
2019-04-15 00:00:00+00:00,104.43000030517578,102.12000274658205,107.85614997863769,79.31678215552449,2.7021429879324748,0.45522767,9437.947045848337,0.0,0.0,9437.947045848337,-1,0.0,8773.195997242155
2019-04-16 00:00:00+00:00,101.86000061035156,102.3499984741211,107.74709999084473,66.28268435201795,2.749285561697824,0.5360448,9437.947045848337,0.0,0.0,9437.947045848337,0,0.0,8792.955080105046
2019-04-17 00:00:00+00:00,103.19000244140624,101.83999633789062,107.64134998321533,67.15296461562716,2.7514283316475994,0.5684297,-9.437947045847977,9433.23043063302,0.0,9423.792483587173,1,98.22607013157436,8749.140464164766
2019-04-18 00:00:00+00:00,101.9499969482422,103.87000274658205,107.5283999633789,64.67970971248639,2.8421423775809154,0.5397916,-9.437947045847977,9621.2657695711,0.0,9611.827822525252,0,98.22607013157436,8923.539637882997
2019-04-22 00:00:00+00:00,105.25,107.06999969482422,107.43574996948242,67.77095726154617,2.9164281572614406,0.6075784,-9.437947045847977,9917.674937634472,0.0,9908.236990588624,0,99.60678918021067,9198.453461447747
2019-04-23 00:00:00+00:00,106.97000122070312,106.5999984741211,107.35894996643066,69.56352743361418,3.020713806152343,0.46316555,-9.437947045847977,9874.139686485589,0.0,9864.70173943974,0,102.69535745893205,9158.075350232804
2019-04-24 00:00:00+00:00,107.5,103.94000244140624,107.27584995269775,70.71062378202308,3.0749996730259475,0.57936263,-9.437947045847977,9627.749698038258,0.0,9618.31175099241,0,102.69535745893205,8929.553357290779
2019-04-25 00:00:00+00:00,103.9800033569336,102.08000183105467,107.17379997253418,69.24260152279707,3.1378566196986597,0.44666833,-9.437947045847977,9455.461648259174,0.0,9446.023701213326,0,102.69535745893205,8769.759492516814
2019-04-26 00:00:00+00:00,101.47000122070312,97.87999725341795,107.05354999542236,65.22999542624027,3.175713675362722,0.5571175,9043.386237367833,0.0,0.0,9043.386237367833,-1,0.0,8408.934361711043
2019-04-29 00:00:00+00:00,98.0,97.0,106.90809997558594,48.6033522702576,3.173570360456194,0.53944504,-9.043386237368395,9038.866803965851,0.0,9029.823417728483,1,93.11642674037387,8333.333224092303
2019-04-30 00:00:00+00:00,97.98999786376952,96.0500030517578,106.7697999572754,45.3868980438808,3.1307133265904006,0.5147432,-9.043386237368395,8950.34210417889,0.0,8941.298717941521,0,93.11642674037387,8251.718367065776
2019-05-01 00:00:00+00:00,95.83999633789062,91.88999938964844,106.62934997558594,45.31946966951383,3.217141832624161,0.46037757,-9.043386237368395,8562.69551649006,0.0,8553.65213025269,0,93.11642674037387,7894.329740985348
2019-05-02 00:00:00+00:00,91.12999725341795,89.16999816894531,106.45899997711182,38.939188128750914,3.4307131086077,0.4318696,8287.727157622809,0.0,0.0,8287.727157622809,-1,0.0,7660.652663232183
2019-05-03 00:00:00+00:00,91.75,90.9000015258789,106.28179996490479,35.79071413405384,3.5007133483886697,0.4495115,8287.727157622809,0.0,0.0,8287.727157622809,0,0.0,7809.27837923348
2019-05-06 00:00:00+00:00,89.9000015258789,91.23999786376952,106.11469997406006,24.973956972605762,3.2649993896484366,0.55528224,8287.727157622809,0.0,0.0,8287.727157622809,0,0.0,7838.487686229496
2019-05-07 00:00:00+00:00,90.1500015258789,91.77999877929688,105.95299995422363,29.02851993132751,3.1549998692103776,0.3515132,-8.287727157623522,8283.58536494034,0.0,8275.297637782716,1,86.34249877929686,7884.879516852221
2019-05-08 00:00:00+00:00,91.66999816894533,94.02999877929688,105.79994995117187,29.866673097983607,3.180000305175779,0.40376964,-8.287727157623522,8486.658663251606,0.0,8478.370936093983,0,87.0474989754813,8078.178483390445
2019-05-09 00:00:00+00:00,92.68000030517578,94.23999786376952,105.65834995269775,36.04859587914242,3.1885724748883897,0.47115138,-8.287727157623522,8505.612088463253,0.0,8497.32436130563,0,89.2599983215332,8096.219641613793
2019-05-10 00:00:00+00:00,94.36000061035156,95.0,105.51524993896484,31.601059309349054,3.210000719342908,0.44285026,-8.287727157623522,8574.20592869789,0.0,8565.918201540266,0,89.45713915143693,8161.511920502768
2019-05-13 00:00:00+00:00,93.94000244140624,93.5,105.36214992523193,24.56806155068361,3.1614292689732113,0.47541013,-8.287727157623522,8438.82372982371,0.0,8430.536002666087,0,90.18499892098563,8032.645942810618
2019-05-14 00:00:00+00:00,93.91999816894533,94.33999633789062,105.18774990081788,23.54604736561876,3.1307155064174075,0.58552366,-8.287727157623522,8514.637430670304,0.0,8506.34970351268,0,90.18499892098563,8104.8105757040175
2019-05-15 00:00:00+00:00,93.38999938964844,94.36000061035156,105.01514987945556,29.075838965470382,2.99357278006417,0.533585,-8.287727157623522,8516.442912265396,0.0,8508.155185107773,0,90.18499892098563,8106.529155789816
2019-05-16 00:00:00+00:00,95.0,95.18000030517578,104.84119991302491,31.706163534463144,2.9471440996442473,0.43669233,-8.287727157623522,8590.451820106367,0.0,8582.164092948744,0,90.18499892098563,8176.975864043674
2019-05-17 00:00:00+00:00,94.2699966430664,93.0199966430664,104.66759994506836,42.38149897451948,2.7207156590052954,0.44389957,-8.287727157623522,8395.501123204605,0.0,8387.213396046982,0,90.75928415570941,7991.408541552777
2019-05-20 00:00:00+00:00,93.20999908447266,93.68000030517578,104.48799991607666,39.52631115820463,2.774287087576724,0.43098852,-8.287727157623522,8455.06962123219,0.0,8446.781894074566,0,90.75928415570941,8048.109886351525
2019-05-21 00:00:00+00:00,94.08999633789062,95.62999725341795,104.32854991912842,43.66648602100559,2.655001504080631,0.46692863,-8.287727157623522,8631.06620433283,0.0,8622.778477175207,0,90.75928415570941,8215.635395172816
2019-05-22 00:00:00+00:00,95.0199966430664,92.91000366210938,104.17704990386963,61.333321614316816,2.485001700265061,0.45649356,-8.287727157623522,8385.57372878948,0.0,8377.286001631857,0,91.647494997297,7981.95897286591
2019-05-23 00:00:00+00:00,91.0500030517578,88.8499984741211,104.02954990386962,61.33334997408102,2.49642998831612,0.4896584,7998.82234027485,0.0,0.0,7998.82234027485,-1,0.0,7633.161280875705
2019-05-24 00:00:00+00:00,89.77999877929688,87.16000366210938,103.85429988861084,44.556551105522175,2.5828584943498805,0.5450639,7998.82234027485,0.0,0.0,7998.82234027485,0,0.0,7487.972725046006
2019-05-28 00:00:00+00:00,87.69000244140625,87.11000061035156,103.6679499053955,39.89099568613323,2.687144143240783,0.43857756,-7.998822340275183,7994.824927810945,0.0,7986.82610547067,1,83.28571592058455,7483.676930277765
2019-05-29 00:00:00+00:00,85.6500015258789,86.43000030517578,103.48964992523193,38.14119453791255,2.6314293997628257,0.44409695,-7.998822340275183,7932.415521857017,0.0,7924.416699516742,0,83.28571592058455,7425.257660839474
2019-05-30 00:00:00+00:00,86.26000213623047,83.95999908447266,103.31024993896484,29.028704958757544,2.609286172049377,0.49565288,-7.998822340275183,7705.722522285918,0.0,7697.723699945643,0,83.28571592058455,7213.058246035
2019-05-31 00:00:00+00:00,82.69999694824219,81.87999725341797,103.11619995117188,24.77920432526409,2.5814290727887763,0.6446858,7495.552023558217,0.0,0.0,7495.552023558217,-1,0.0,7034.363932994786
2019-06-03 00:00:00+00:00,82.47000122070312,82.94999694824219,102.91809993743897,19.769585300786943,2.5371431623186314,0.68400437,-7.495552023558048,7491.806120497969,0.0,7484.3105684744105,1,78.0078536442348,7126.288304197335
2019-06-04 00:00:00+00:00,83.44000244140625,84.27999877929688,102.71749992370606,25.19980974775143,2.5114288330078063,0.7657545,-7.495552023558048,7611.928076191182,0.0,7604.432524167624,0,79.14428220476424,7240.549628391474
2019-06-05 00:00:00+00:00,84.0999984741211,82.02999877929688,102.56169990539551,26.884207158678237,2.546428680419917,0.64198947,-7.495552023558048,7408.714521142611,0.0,7401.218969119053,0,80.51285552978517,7047.250661853251
2019-06-06 00:00:00+00:00,82.83999633789062,84.2699966430664,102.39229988098144,24.301794480104263,2.729285648890901,0.71323913,-7.495552023558048,7611.024711897195,0.0,7603.529159873637,0,80.51285552978517,7239.690338348574
2019-06-07 00:00:00+00:00,84.48999786376953,84.5999984741211,102.23979988098145,28.53206987298283,2.7907142639160125,0.6389062,-7.495552023558048,7640.8295320132665,0.0,7633.3339799897085,0,80.51285552978517,7268.041010747948
2019-06-10 00:00:00+00:00,85.08000183105469,85.19999694824219,102.08894989013672,32.14589161151733,2.7285712105887256,0.6033589,-7.495552023558048,7695.0196755465395,0.0,7687.524123522981,0,80.51285552978517,7319.587270735557
2019-06-11 00:00:00+00:00,86.2300033569336,86.5,101.93749988555908,31.972779404437745,2.692143031529016,0.5147393,-7.495552023558048,7812.432227422849,0.0,7804.936675399291,0,81.10714013235909,7431.271380247255
2019-06-12 00:00:00+00:00,85.95999908447266,85.02999877929688,101.78339988708495,30.03936126412674,2.7085718427385594,0.7559958,-7.495552023558048,7679.66592787404,0.0,7672.170375850482,0,82.46178545270648,7304.982617237549
2019-06-13 00:00:00+00:00,86.33000183105469,86.48999786376953,101.62654987335205,31.776130661671118,2.624286106654576,0.68059444,-7.495552023558048,7811.528863128861,0.0,7804.033311105303,0,82.46178545270648,7430.412090204356
2019-06-14 00:00:00+00:00,86.55999755859375,85.16999816894531,101.47169986724853,43.796003991978864,2.3607145036969865,0.72256535,-7.495552023558048,7692.310271729635,0.0,7684.814719706077,0,82.55356870378766,7317.010056053115
2019-06-17 00:00:00+00:00,84.41000366210938,85.47000122070312,101.30429985046386,44.664867245247464,2.252143314906529,0.62752104,-7.495552023558048,7719.405688028803,0.0,7711.910136005245,0,82.55356870378766,7342.783513770049
2019-06-18 00:00:00+00:00,86.47000122070312,88.30000305175781,101.14179985046387,45.66137937433388,2.275000980922154,0.60007775,-7.495552023558048,7975.003347087731,0.0,7967.507795064173,0,82.55356870378766,7585.910815656337
2019-06-19 00:00:00+00:00,87.75,88.6500015258789,100.98939987182617,54.44180949212538,2.3307151794433594,0.61930466,-7.495552023558048,8006.614206726717,0.0,7999.118654703159,0,84.88750158037458,7615.979412695253
2019-06-20 00:00:00+00:00,90.4000015258789,91.4499969482422,100.83809986114503,62.38774557271693,2.3421434674944197,0.59588104,8239.61696822077,0.0,0.0,8239.61696822077,-1,0.0,7856.528844452845
2019-06-21 00:00:00+00:00,91.37000274658205,92.37000274658205,100.70419982910157,74.35114236540586,2.4364291599818637,0.57766676,-8.239616968221526,8235.499218611463,0.0,8227.259601643242,1,87.93678174700057,7935.567142243184
2019-06-24 00:00:00+00:00,91.83999633789062,90.55999755859376,100.5776498413086,74.15385156584175,2.4364286150251107,0.6011703,-8.239616968221526,8074.123275468365,0.0,8065.883658500144,0,88.71535900660925,7780.068416791202
2019-06-25 00:00:00+00:00,90.41999816894533,90.04000091552734,100.44099983215332,65.71570401476282,2.455714089529855,0.45439145,-8.239616968221526,8027.761558240717,0.0,8019.5219412724955,0,88.71535900660925,7735.395166254277
2019-06-26 00:00:00+00:00,91.5,93.08999633789062,100.31369983673096,71.945202152449,2.2849998474121094,0.51313037,-8.239616968221526,8299.692208568329,0.0,8291.452591600108,0,88.71535900660925,7997.422260960559
2019-06-27 00:00:00+00:00,92.88999938964844,92.11000061035156,100.20679981231689,73.13745354679853,2.398571014404296,0.4671084,-8.239616968221526,8212.318019887913,0.0,8204.078402919691,0,89.66249656677246,7913.230189251591
2019-06-28 00:00:00+00:00,92.22000122070312,93.16000366210938,100.09574981689452,69.05124932302338,2.417142595563615,0.42616057,-8.239616968221526,8305.933902264955,0.0,8297.694285296733,0,89.66249656677246,8003.436635814598
2019-07-01 00:00:00+00:00,95.0,93.08999633789062,99.98044982910156,69.74207655248395,2.4578568594796297,0.6079964,-8.239616968221526,8299.692208568329,0.0,8291.452591600108,0,89.66249656677246,7997.422260960559
2019-07-02 00:00:00+00:00,92.66999816894533,87.55999755859375,99.86119979858398,67.40621651818876,2.482856750488278,0.589381,-8.239616968221526,7806.650103213331,0.0,7798.4104862451095,0,89.66249656677246,7522.336461406904
2019-07-03 00:00:00+00:00,88.0,87.19999694824219,99.71589977264404,55.502388371536235,2.7457139151436913,0.7069221,7754.651821254762,0.0,0.0,7754.651821254762,-1,0.0,7491.408574325088
2019-07-05 00:00:00+00:00,87.37000274658203,88.56999969482422,99.56279975891113,51.62174247456748,2.7449994768415147,0.5218473,-7.754651821254811,7750.776433038243,0.0,7743.0217812169885,1,83.08142607552665,7609.106403244568
2019-07-08 00:00:00+00:00,87.94999694824219,90.1500015258789,99.41794975280762,57.7484046572679,2.711427961077006,0.7411651,-7.754651821254811,7889.042674412201,0.0,7881.288022590947,0,84.45250047956195,7744.845390387401
2019-07-09 00:00:00+00:00,89.70999908447266,89.1500015258789,99.2714497756958,60.077516192406456,2.858570643833702,0.6516533,-7.754651821254811,7801.532496476735,0.0,7793.77784465548,0,86.0828595842634,7658.934738592634
2019-07-10 00:00:00+00:00,90.05000305175781,90.66000366210938,99.11634979248046,51.98690554871891,2.7128562927246063,0.45110986,-7.754651821254811,7933.673052101198,0.0,7925.918400279943,0,86.0828595842634,7788.660006327684
2019-07-11 00:00:00+00:00,91.1500015258789,90.83999633789062,98.97359981536866,54.45676537170261,2.7207134791782894,0.68261933,-7.754651821254811,7949.424243185896,0.0,7941.669591364641,0,86.59071922302246,7804.123294422335
2019-07-12 00:00:00+00:00,90.83999633789062,90.9000015258789,98.83049980163574,48.46964282776168,2.583571297781806,0.5674344,-7.754651821254811,7954.675307863801,0.0,7946.920656042546,0,86.75892611912319,7809.278379233477
2019-07-15 00:00:00+00:00,91.16000366210938,88.75,98.66504981994629,46.14577698633516,2.5350003923688598,0.5174959,-7.754651821254811,7766.5282917726145,0.0,7758.77363995136,0,87.0246445792062,7624.570346785478
2019-07-16 00:00:00+00:00,88.79000091552734,87.0,98.48059982299804,45.337462085603455,2.548571995326448,0.4638658,-7.754651821254811,7613.385480385549,0.0,7605.6308285642945,0,87.0246445792062,7474.226706144639
2019-07-17 00:00:00+00:00,87.2300033569336,85.19000244140625,98.28904983520508,42.6356591983802,2.6128578186035125,0.34966975,-7.754651821254811,7454.992271970251,0.0,7447.237620148996,0,87.0246445792062,7318.728636138915
2019-07-18 00:00:00+00:00,84.94999694824219,85.43000030517578,98.07999984741211,29.63920059499857,2.4900011335100425,0.4330054,7457.02588412,0.0,0.0,7457.02588412,-1,0.0,7339.347009044706
2019-07-19 00:00:00+00:00,85.72000122070312,87.04000091552734,97.86929985046386,32.100760278971336,2.428572518484931,0.43743953,7457.02588412,0.0,0.0,7457.02588412,0,0.0,7477.6632108699805
2019-07-22 00:00:00+00:00,87.37000274658203,87.20999908447266,97.65704982757569,34.079084470595475,2.4785723005022313,0.56002945,7457.02588412,0.0,0.0,7457.02588412,0,0.0,7492.267864367988
2019-07-23 00:00:00+00:00,87.13999938964844,87.58999633789062,97.44309982299805,34.782615560891756,2.4092859540666853,0.5004514,-7.457025884120412,7453.29923450275,0.0,7445.842208618629,1,83.49214063371932,7524.913676089348
2019-07-24 00:00:00+00:00,87.45999908447266,87.68000030517578,97.22914978027343,50.10585314668443,2.1357149396623885,0.463264,-7.457025884120412,7460.957945868382,0.0,7453.500919984262,0,83.97606740679059,7532.645975582931
2019-07-25 00:00:00+00:00,88.0199966430664,85.47000122070312,97.01639980316162,51.72663058558513,2.095715114048549,0.4250742,-7.457025884120412,7272.902401020433,0.0,7265.445375136313,0,84.47642789568219,7342.7835137700495
2019-07-26 00:00:00+00:00,85.0199966430664,84.29000091552734,96.78849979400634,39.48439984904489,2.1928580147879466,0.39611343,-7.457025884120412,7172.492585527895,0.0,7165.035559643775,0,84.47642789568219,7241.408918434376
2019-07-29 00:00:00+00:00,84.05999755859375,83.91999816894531,96.56079978942871,29.56763560777364,2.0650008065359935,0.45323262,7122.839388510553,0.0,0.0,7122.839388510553,-1,0.0,7209.62174130966
2019-07-30 00:00:00+00:00,83.5999984741211,86.05999755859375,96.31864974975586,30.92631762564156,2.1228577750069753,0.50500536,7122.839388510553,0.0,0.0,7122.839388510553,0,0.0,7393.470483714758
2019-07-31 00:00:00+00:00,85.86000061035156,85.8499984741211,96.11659973144532,33.9609230153291,2.1750008719308034,0.55702597,7122.839388510553,0.0,0.0,7122.839388510553,0,0.0,7375.429325491407
2019-08-01 00:00:00+00:00,84.0,81.06999969482422,95.93774971008301,32.637449857585196,2.2714287894112712,0.55498445,-7.122839388510329,7119.279748636236,0.0,7112.156909247726,1,82.58749716622489,6964.776514783827
2019-08-02 00:00:00+00:00,83.05000305175781,82.45999908447266,95.73219970703126,24.253526145987806,2.653571537562779,0.84641576,-7.122839388510329,7241.344563519572,0.0,7234.221724131062,0,82.58749716622489,7084.19226834285
2019-08-05 00:00:00+00:00,80.25,79.0,95.5316497039795,32.84232704264238,3.0107143947056363,0.8290804,6919.970630526754,0.0,0.0,6919.970630526754,-1,0.0,6786.9414917865115
2019-08-06 00:00:00+00:00,79.52999877929688,78.27999877929688,95.31534969329834,30.039913470487733,3.091428484235491,0.6798866,-3470.365271209166,10374.768561509376,3459.985315263377,3444.417975036833,1,74.48392840794155,6725.085717622878
2019-08-07 00:00:00+00:00,76.6500015258789,77.55000305175781,95.10604969024658,31.76779742531872,3.1214283534458707,0.6278284,-3471.051776232036,10278.0192405818,3459.985315263377,3346.982149086387,0,74.48392840794155,6662.371308862604
2019-08-08 00:00:00+00:00,78.0,80.36000061035156,94.90104969024658,29.732511941357288,3.2928570338657925,0.6438349,-3471.738281254906,10650.43971558731,3459.985315263377,3718.7161190690276,0,74.48392840794155,6903.780030663093
2019-08-09 00:00:00+00:00,80.80000305175781,79.37000274658203,94.71449970245361,33.817822255660374,3.3171424865722656,0.61302054,-3472.4247862777756,10519.231247611273,3459.985315263377,3586.8211460701204,0,75.42071505955288,6818.728668911227
2019-08-12 00:00:00+00:00,78.75,77.91999816894531,94.53009971618653,31.73345885251048,3.299285343715123,0.58133745,-3473.1112913006455,10327.056207489928,3459.985315263377,3393.9596009259058,0,75.42071505955288,6694.157830541062
2019-08-13 00:00:00+00:00,77.48999786376953,78.5199966430664,94.36409969329834,28.539727710437518,3.2935703822544644,0.6340762,-3473.7977963235153,10406.576460470713,3459.985315263377,3472.7933488838207,0,75.42071505955288,6745.70409052867
2019-08-14 00:00:00+00:00,76.4800033569336,75.0199966430664,94.22599967956543,30.121514036061043,3.4149987357003346,0.6532543,-3474.484301346385,9942.707138402118,3459.985315263377,3008.2375217923563,0,75.42071505955288,6445.016809246989
2019-08-15 00:00:00+00:00,74.91000366210938,74.94000244140625,94.06549964904785,28.52444087774927,3.4935695103236606,0.6095316,6442.036215379727,0.0,0.0,6442.036215379727,-1,0.0,6438.144455242564
2019-08-16 00:00:00+00:00,75.19000244140625,75.91999816894531,93.90739967346191,29.875154400736818,3.462855202811105,0.6208335,-6.4420362153796304,6438.816806976239,0.0,6432.374770760859,1,69.69964817592076,6522.33652695153
2019-08-19 00:00:00+00:00,77.41999816894531,77.80999755859375,93.77679965972901,33.22146319163167,3.4171409606933594,0.61775464,-6.4420362153796304,6599.108694868051,0.0,6592.666658652672,0,70.72571536472866,6684.7076064079365
2019-08-20 00:00:00+00:00,77.25,76.69000244140625,93.63829963684083,32.5137629969973,3.3164269583565846,0.69566524,-6.4420362153796304,6504.121292889583,0.0,6497.679256674203,0,72.68428611755371,6588.488095883404
2019-08-21 00:00:00+00:00,77.58999633789062,77.22000122070312,93.4950496673584,31.306113079645442,3.22571291242327,0.57751524,-6.4420362153796304,6549.070780904843,0.0,6542.628744689463,0,72.68428611755371,6634.020636463229
2019-08-22 00:00:00+00:00,77.62000274658203,75.51000213623047,93.34669967651367,40.49382018064519,2.8957127162388394,0.5825181,-6.4420362153796304,6404.0448179100185,0.0,6397.602781694639,0,72.68428611755371,6487.113500547729
2019-08-23 00:00:00+00:00,74.18000030517578,71.75,93.21249969482422,33.10645409448033,2.5028555733816966,0.43901008,-6.4420362153796304,6085.15696842466,0.0,6078.71493220928,0,72.68428611755371,6164.089266274456
2019-08-26 00:00:00+00:00,72.73999786376953,72.25,93.03949970245361,32.63055343104192,2.537855965750558,0.5486422,-6.4420362153796304,6127.562243465946,0.0,6121.120207250567,0,72.68428611755371,6207.044592171838
2019-08-27 00:00:00+00:00,72.93000030517578,71.66000366210938,92.86409969329834,35.39950358766799,2.452855791364397,0.54434395,-6.4420362153796304,6077.5243295027385,0.0,6071.082293287359,0,72.68428611755371,6156.3576222271295
2019-08-28 00:00:00+00:00,71.66999816894531,72.52999877929688,92.67664970397949,35.64113761546764,2.361426762172154,0.5205387,6135.640094104244,0.0,0.0,6135.640094104244,-1,0.0,6231.099469802972
2019-08-29 00:00:00+00:00,73.19000244140625,74.4800033569336,92.51504970550538,28.917577783230257,2.2914270673479353,0.69714737,-6.135640094104019,6132.573807200644,0.0,6126.43816710654,1,68.98785863603864,6398.6256340705195
2019-08-30 00:00:00+00:00,74.58999633789062,74.19000244140625,92.35989971160889,37.48078976727486,2.4121415274483815,0.6757347,-6.135640094104019,6108.695558832364,0.0,6102.55991873826,0,71.04286275591168,6373.711466396487
2019-09-03 00:00:00+00:00,72.55999755859375,74.12999725341797,92.22459972381591,39.847578066479194,2.428570883614676,0.65513426,-6.135640094104019,6103.754820008958,0.0,6097.619179914854,0,71.04286275591168,6368.556381585347
2019-09-04 00:00:00+00:00,75.69999694824219,75.56999969482422,92.10264972686768,37.68928015478055,2.347142355782645,0.5648771,-6.135640094104019,6222.322500680939,0.0,6216.186860586835,0,71.04286275591168,6492.267929912612
2019-09-05 00:00:00+00:00,75.83000183105469,75.5999984741211,91.99014972686767,51.74382826085724,2.202857426234654,0.6630016,-6.135640094104019,6224.792555996087,0.0,6218.656915901983,0,72.04928616115025,6494.845144595054
2019-09-06 00:00:00+00:00,74.7300033569336,76.44000244140625,91.86019973754883,52.09922487379693,2.2485716683523997,0.6551923,-6.135640094104019,6293.957245785779,0.0,6287.821605691675,0,72.2957123347691,6567.010432934711
2019-09-09 00:00:00+00:00,77.25,80.0,91.71639976501464,51.668819672336994,2.3421429225376675,0.60840446,-6.135640094104019,6587.082202788052,0.0,6580.946562693948,0,73.06714493887765,6872.852143581276
2019-09-10 00:00:00+00:00,80.38999938964844,80.0999984741211,91.58784976959228,56.347833158923216,2.4642851693289622,0.5193812,6579.287315913956,0.0,0.0,6579.287315913956,-1,0.0,6881.443077671501
2019-09-11 00:00:00+00:00,80.87999725341797,81.02999877929688,91.47654975891113,60.50522281489214,2.5399992806570872,0.4939577,6579.287315913956,0.0,0.0,6579.287315913956,0,0.0,6961.340010058484
2019-09-12 00:00:00+00:00,79.22000122070312,79.68000030517578,91.35169975280762,61.45519073422139,2.623570578438895,0.5258508,6579.287315913956,0.0,0.0,6579.287315913956,0,0.0,6845.3607612248015
2019-09-13 00:00:00+00:00,80.16999816894531,79.38999938964844,91.24659976959228,62.81498792918188,2.677142007010324,0.6285617,-6.579287315914371,6575.9993162558285,0.0,6569.420028939914,1,75.74464443751744,6820.446593550769
2019-09-16 00:00:00+00:00,85.98999786376953,85.63999938964844,91.13084976196289,79.8437404917791,2.5928557259695872,0.5595714,-6.579287315914371,7093.6967094108395,0.0,7087.117422094925,0,75.74464443751744,7357.388167268056
2019-09-17 00:00:00+00:00,84.4000015258789,81.22000122070312,91.04929977416992,86.09163661557733,3.004284449986049,0.46078998,-6.579287315914371,6727.581264640774,0.0,6721.00197732486,0,81.75071580069405,6977.663243642292
2019-09-18 00:00:00+00:00,80.0,81.31999969482422,90.9365497970581,71.35834555589764,3.1935702732631137,0.39355886,6719.181212779565,0.0,0.0,6719.181212779565,-1,0.0,6986.254177732519
2019-09-19 00:00:00+00:00,82.38999938964844,81.61000061035156,90.81579978942871,70.33780093010543,3.182855878557478,0.42671016,6719.181212779565,0.0,0.0,6719.181212779565,0,0.0,7011.1683454065505
2019-09-20 00:00:00+00:00,81.98999786376953,81.0,90.7072998046875,67.8696631967446,3.053570338657924,0.42216167,6719.181212779565,0.0,0.0,6719.181212779565,0,0.0,6958.762795376043
2019-09-23 00:00:00+00:00,80.0,80.12999725341797,90.57174980163575,66.79821440880391,3.053569793701172,0.45160875,6719.181212779565,0.0,0.0,6719.181212779565,0,0.0,6884.020292353944
2019-09-24 00:00:00+00:00,78.75,78.55999755859375,90.45204978942871,64.23149781078868,3.0057127816336497,0.55029756,6719.181212779565,0.0,0.0,6719.181212779565,0,0.0,6749.140595254012
2019-09-25 00:00:00+00:00,77.7300033569336,76.7699966430664,90.33419979095459,57.0485572636377,3.006426674979074,0.5523123,-6.719181212779404,6715.823301129,0.0,6709.104119916221,1,74.05142838614327,6595.360449887829
2019-09-26 00:00:00+00:00,76.0,75.08999633789062,90.19999977111816,52.54679604983971,3.0235693795340404,0.55366665,-6.719181212779404,6568.85722468301,0.0,6562.1380434702305,0,74.05142838614327,6451.030528654772
2019-09-27 00:00:00+00:00,74.0,74.9800033569336,90.06689975738526,47.165043588278344,2.9728551592145647,0.5608052,6542.677027835269,0.0,0.0,6542.677027835269,-1,0.0,6441.580959967904
2019-09-30 00:00:00+00:00,74.37999725341797,74.22000122070312,89.9314497756958,37.67190968873003,2.8285696847098216,0.535754,-6.5426770278354525,6539.407324173182,0.0,6532.864647145347,1,70.52072061811175,6376.28868107893
2019-10-01 00:00:00+00:00,74.79000091552734,71.58000183105469,89.78289978027344,36.01332494416477,2.7235701424734935,0.5622244,-6.5426770278354525,6306.801139040649,0.0,6300.258462012814,0,70.52072061811175,6149.484612776448
2019-10-02 00:00:00+00:00,71.33000183105469,69.80000305175781,89.62664978027344,29.212497304584247,2.7549988882882253,0.6339465,-6.5426770278354525,6149.968252178524,0.0,6143.425575150689,0,70.52072061811175,5996.563757453166
2019-10-03 00:00:00+00:00,69.16000366210938,70.83999633789062,89.47524978637695,28.670123172161468,2.7399989536830356,0.6719718,6225.695343752903,0.0,0.0,6225.695343752903,-1,0.0,6085.910258527017
2019-10-04 00:00:00+00:00,70.70999908447266,70.91999816894531,89.34839977264404,32.12043663837605,2.669999258858817,0.6079154,-6.2256953437527045,6222.58405172704,0.0,6216.358356383287,1,66.72999790736607,6092.783267977699
2019-10-07 00:00:00+00:00,71.4000015258789,69.76000213623047,89.23294975280761,8.511811375131629,2.2607133047921315,0.68838763,-6.2256953437527045,6120.804962618169,0.0,6114.579267274416,0,66.91499928065709,5993.127252727824
2019-10-08 00:00:00+00:00,68.88999938964844,68.7300033569336,89.1168497467041,10.428147429785767,2.0392848423549106,0.6975465,-6.2256953437527045,6030.431948759893,0.0,6024.2062534161405,0,66.91499928065709,5904.6393862506175
2019-10-09 00:00:00+00:00,69.70999908447266,68.58999633789062,89.01179977416992,9.14988380058054,2.034999302455357,0.6753596,-6.2256953437527045,6018.147607723233,0.0,6011.92191237948,0,66.91499928065709,5892.611291988794
2019-10-10 00:00:00+00:00,68.69000244140625,68.91000366210938,88.91844974517822,7.339420185131985,2.0699996948242188,0.637213,-6.2256953437527045,6046.22533648143,0.0,6039.999641137677,0,66.91499928065709,5920.103329791526
2019-10-11 00:00:00+00:00,69.87999725341797,69.25,88.84869976043701,9.619254000327643,2.030714307512556,0.6543594,-6.2256953437527045,6076.056919172167,0.0,6069.831223828414,0,66.91499928065709,5949.312636787544
2019-10-14 00:00:00+00:00,68.06999969482422,68.19000244140625,88.74999977111817,12.326865780059904,2.071428026471819,0.7009678,-6.2256953437527045,5983.051785595284,0.0,5976.826090251531,0,66.91499928065709,5858.247555627893
2019-10-15 00:00:00+00:00,67.5999984741211,69.25,88.64699977874756,12.7781745514676,2.1414282662527904,0.70926905,-6.2256953437527045,6076.056919172168,0.0,6069.831223828415,0,66.91499928065709,5949.312636787544
2019-10-16 00:00:00+00:00,68.51000213623047,68.18000030517578,88.55564979553223,21.515141179200143,2.1442854745047435,0.6746071,-6.2256953437527045,5982.174189219117,0.0,5975.948493875364,0,66.91499928065709,5857.388265584995
2019-10-17 00:00:00+00:00,68.37000274658203,66.7699966430664,88.46049980163575,22.557576526326088,2.0878568376813615,0.7204258,-6.2256953437527045,5858.459207165431,0.0,5852.233511821678,0,66.91499928065709,5736.253931940172
2019-10-18 00:00:00+00:00,66.69000244140625,64.44000244140625,88.34129978179932,20.446338822166496,2.1114283970424106,0.730187,5639.3167020789115,0.0,0.0,5639.3167020789115,-1,0.0,5536.082611397523
2019-10-21 00:00:00+00:00,64.4000015258789,67.66000366210938,88.21364978790284,18.369973527382484,2.201428004673549,0.7424075,-5.639316702078759,5636.498452852486,0.0,5630.859136150407,1,61.27285984584263,5812.71501504807
2019-10-22 00:00:00+00:00,67.87000274658203,69.56999969482422,88.08234981536866,37.780549218208975,2.2021424429757253,0.60960865,-5.639316702078759,5795.612982865149,0.0,5789.97366616307,0,64.35786165509906,5976.80401914402
2019-10-23 00:00:00+00:00,69.6500015258789,71.94000244140625,87.95764980316162,49.28879563116902,2.2357139587402344,0.57793593,-5.639316702078759,5993.048928643064,0.0,5987.409611940985,0,66.26678603036063,6180.4124998582665
2019-10-24 00:00:00+00:00,72.29000091552734,71.97000122070312,87.83974983215332,53.14287457722178,2.356428418840681,0.70094806,5980.915374519739,0.0,0.0,5980.915374519739,-1,0.0,6182.9897145407085
2019-10-25 00:00:00+00:00,71.83000183105469,72.4800033569336,87.7036498260498,53.00860525474001,2.357142857142857,0.63125026,-5.980915374520009,5977.9264113140825,0.0,5971.9454959395625,1,68.4353585924421,6226.804330480991
2019-10-28 00:00:00+00:00,73.08999633789062,71.05000305175781,87.57044982910156,58.095240252923226,2.3500001089913503,0.52720314,-5.980915374520009,5859.984410809474,0.0,5854.003495434954,0,68.9442890712193,6103.9520721966255
2019-10-29 00:00:00+00:00,70.66000366210938,71.80999755859375,87.44134983062744,56.74418335984579,2.397143227713449,0.67840123,-5.980915374520009,5922.666406179906,0.0,5916.685490805386,0,68.9442890712193,6169.243695639343
2019-10-30 00:00:00+00:00,72.01000213623047,69.62000274658203,87.30784980773926,59.034799811434446,2.4142853873116628,0.6771054,-5.980915374520009,5742.042410304865,0.0,5736.061494930345,0,68.9442890712193,5981.09981391226
2019-10-31 00:00:00+00:00,69.16999816894531,69.30999755859375,87.16299983978271,51.80294520139807,2.52142824445452,0.58076257,-5.980915374520009,5716.474141608831,0.0,5710.493226234311,0,68.9442890712193,5954.467066152428
2019-11-01 00:00:00+00:00,70.05999755859375,71.1500015258789,87.01619983673096,50.152587977059405,2.504286084856306,0.490189,-5.980915374520009,5868.231975542546,0.0,5862.251060168026,0,68.9442890712193,6112.54300628685
2019-11-04 00:00:00+00:00,72.41999816894531,73.69000244140625,86.87669982910157,57.240704095312324,2.421428680419922,0.59817654,-5.980915374520009,6077.72339185662,0.0,6071.7424764821,0,68.9442890712193,6330.756140499107
2019-11-05 00:00:00+00:00,74.4000015258789,74.01000213623047,86.73989982604981,60.12774363734425,2.4642857142857144,0.5628106,-5.980915374520009,6104.115976551763,0.0,6098.135061177243,0,70.05785942077637,6358.247522855581
2019-11-06 00:00:00+00:00,73.48999786376953,71.41999816894531,86.6256498336792,63.76949063184447,2.492143358503069,0.49171278,-5.980915374520009,5890.500463246726,0.0,5884.519547872206,0,70.3135735648019,6135.738593875084
2019-11-07 00:00:00+00:00,72.44999694824219,74.73999786376953,86.4998998260498,60.402688683786344,2.5664291381835938,0.5152586,-5.980915374520009,6164.323765427159,0.0,6158.342850052639,0,70.3135735648019,6420.961931615857
2019-11-08 00:00:00+00:00,74.0,74.69999694824219,86.3873998260498,72.06511068888975,2.689286368233817,0.412044,-5.980915374520009,6161.024613684159,0.0,6155.043698309639,0,70.89035415649414,6417.5254268905155
2019-11-11 00:00:00+00:00,73.5,73.81999969482422,86.2653998184204,67.46029763247404,2.599286215645926,0.4064193,-5.980915374520009,6088.445163084728,0.0,6082.464247710208,0,70.89035415649414,6341.924289271774
2019-11-12 00:00:00+00:00,74.0999984741211,73.29000091552734,86.14399982452393,61.108204164933106,2.491428920200893,0.48597878,-5.980915374520009,6044.732503675477,0.0,6038.751588300957,0,70.89035415649414,6296.39174869195
2019-11-13 00:00:00+00:00,72.66999816894531,72.61000061035156,86.01609981536865,53.90398612240504,2.3642856052943637,0.49393123,-5.980915374520009,5988.6481825421915,0.0,5982.6672671676715,0,70.89035415649414,6237.972479253658
2019-11-14 00:00:00+00:00,72.87000274658203,72.3499984741211,85.8818998336792,51.7837215749797,2.3857143947056363,0.4755189,-5.980915374520009,5967.204010837121,0.0,5961.223095462601,0,70.89035415649414,6215.635526262067
2019-11-15 00:00:00+00:00,72.80999755859375,73.4800033569336,85.7476498413086,49.632547014527496,2.422857012067522,0.4757941,-5.980915374520009,6060.4033171425135,0.0,6054.4224017679935,0,70.89035415649414,6312.714982275757
2019-11-18 00:00:00+00:00,72.72000122070312,71.26000213623047,85.62079986572266,56.98677206087144,2.3764283316476003,0.5824789,-5.980915374520009,5877.304485523583,0.0,5871.323570149063,0,70.89035415649414,6121.9932304199765
2019-11-19 00:00:00+00:00,71.36000061035156,70.4000015258789,85.48019989013672,48.54112725986454,2.415714808872768,0.5051117,-5.980915374520009,5806.374296171225,0.0,5800.393380796705,0,70.89035415649414,6048.1100174407775
2019-11-20 00:00:00+00:00,70.73999786376953,72.05999755859375,85.3404499053955,52.22602142778232,2.3157146998814175,0.51111585,5928.389788813539,0.0,0.0,5928.389788813539,-1,0.0,6190.721358588035
2019-11-21 00:00:00+00:00,72.05999755859375,73.31999969482422,85.21984989166259,57.28669445221132,2.4178575788225447,0.55935186,5928.389788813539,0.0,0.0,5928.389788813539,0,0.0,6298.968963374393
2019-11-22 00:00:00+00:00,73.51000213623047,72.98999786376953,85.12149990081787,55.932195608464326,2.424285888671875,0.51911986,-5.928389788813547,5925.427075275901,0.0,5919.498685487088,1,69.6932133265904,6270.618290975019
2019-11-25 00:00:00+00:00,72.81999969482422,73.5199966430664,85.02394989013672,47.823370127058936,2.3092858450753346,0.48455152,-5.928389788813547,5968.453095396772,0.0,5962.524705607959,0,69.6932133265904,6316.1508315548435
2019-11-26 00:00:00+00:00,73.4800033569336,71.91000366210938,84.92049987792969,48.49599374619511,2.279285430908203,0.532351,-5.928389788813547,5837.751680414236,0.0,5831.8232906254225,0,70.05606787545341,6177.835285175825
2019-11-27 00:00:00+00:00,72.06999969482422,72.3499984741211,84.80189990997314,51.60027945740659,2.172142573765346,0.5396331,-5.928389788813547,5873.47105633395,0.0,5867.542666545137,0,70.05606787545341,6215.635526262067
2019-11-29 00:00:00+00:00,71.37000274658203,70.9000015258789,84.67989990234375,40.386159295829856,1.961427961077009,0.54053295,-5.928389788813547,5755.758336404601,0.0,5749.829946615788,0,70.05606787545341,6091.06534333816
2019-12-02 00:00:00+00:00,71.62000274658203,70.79000091552734,84.54959991455078,36.27168163422653,1.943570818219866,0.43691686,-5.928389788813547,5746.828337583522,0.0,5740.899947794708,0,70.05606787545341,6081.615119205035
2019-12-03 00:00:00+00:00,70.01000213623047,68.77999877929688,84.40229991912842,38.408566871334585,1.9528568812779017,0.49285072,5569.349766312867,0.0,0.0,5569.349766312867,-1,0.0,5908.934525572603
2019-12-04 00:00:00+00:00,69.72000122070312,72.05000305175781,84.24764991760254,34.50170599275701,2.0107143947056363,0.5583538,5569.349766312867,0.0,0.0,5569.349766312867,0,0.0,6189.862723991393
2019-12-05 00:00:00+00:00,72.5199966430664,70.58999633789062,84.11399993896484,48.36640145889908,2.1235716683523997,0.5517921,-5.56934976631328,5566.566483071332,0.0,5560.997133305019,1,69.03393145969936,6064.432595578329
2019-12-06 00:00:00+00:00,70.91000366210938,73.95999908447266,83.99019992828369,45.201740030603034,2.1607142857142856,0.44670504,-5.56934976631328,5832.31723119699,0.0,5826.747881430677,0,69.03393145969936,6353.951728087342
2019-12-09 00:00:00+00:00,73.27999877929688,74.51000213623047,83.88234992980956,51.166170270651065,2.294285910470145,0.48500177,-5.56934976631328,5875.689220322007,0.0,5870.1198705556935,0,70.71892765590123,6401.202848752966
2019-12-10 00:00:00+00:00,74.05000305175781,74.83999633789062,83.78114994049072,58.593335190282176,2.247142791748047,0.4201775,-5.56934976631328,5901.711812160325,0.0,5896.142462394012,0,71.06857327052525,6429.552865706084
2019-12-11 00:00:00+00:00,74.76000213623047,74.66999816894531,83.68579990386962,62.07833371533246,2.229285648890904,0.35782522,-5.56934976631328,5888.306143389571,0.0,5882.736793623258,0,71.46928215026855,6414.948212208074
2019-12-12 00:00:00+00:00,74.66000366210938,76.70999908447266,83.58394989013672,57.72646744538913,2.081427982875279,0.4676007,-5.56934976631328,6049.17597354869,0.0,6043.606623782377,0,71.46928215026855,6590.206020522948
2019-12-13 00:00:00+00:00,77.45999908447266,75.48999786376953,83.49749988555908,59.592528973595776,2.123571123395647,0.41550258,-5.56934976631328,5952.969453407156,0.0,5947.400103640843,0,73.58785711015973,6485.394920461933
2019-12-16 00:00:00+00:00,76.25,77.91000366210938,83.3928498840332,56.73491467474321,2.179285866873605,0.37392282,-5.56934976631328,6143.8056039205385,0.0,6138.236254154225,0,73.58785711015973,6693.2991959444225
2019-12-17 00:00:00+00:00,78.12000274658203,78.80999755859375,83.29834991455078,60.73351108718861,2.2614293779645647,0.6148369,6199.885559275267,0.0,0.0,6199.885559275267,-1,0.0,6770.618258202705
2019-12-18 00:00:00+00:00,78.91000366210938,80.58999633789062,83.21489990234375,67.4771833193878,2.244286128452846,0.41148055,-6.199885559275572,6196.787165692421,0.0,6190.587280133145,1,75.41785349164691,6923.539113525987
2019-12-19 00:00:00+00:00,80.16999816894531,81.25,83.15814987182617,69.54457818741103,2.3385723658970425,0.4560062,-6.199885559275572,6247.536668217791,0.0,6241.336782658515,0,77.22356714521136,6980.240458324735
2019-12-20 00:00:00+00:00,82.72000122070312,82.66000366210938,83.10764987945556,75.50515086604078,2.344286782400949,0.6355704,-6.199885559275572,6355.95573998825,0.0,6349.755854428974,0,77.74214145115444,7101.374791969561
2019-12-23 00:00:00+00:00,82.36000061035156,83.37999725341797,83.08874988555908,77.48956038463585,2.3771438598632812,0.5298545,-6.199885559275572,6411.318033681569,0.0,6405.118148122294,0,79.14357348850795,7163.229910686936
2019-12-24 00:00:00+00:00,83.80000305175781,83.80999755859375,83.07434986114502,85.96056844755665,2.303572518484933,0.4548297,-6.199885559275572,6444.3819435145615,0.0,6438.182057955286,0,79.14357348850795,7200.171517176535
2019-12-26 00:00:00+00:00,84.29000091552734,83.6500015258789,83.05849983215332,83.67694725785212,2.1142866952078685,0.42690438,-6.199885559275572,6432.079407131111,0.0,6425.8795215718355,0,79.14357348850795,7186.426153721427
2019-12-27 00:00:00+00:00,84.06999969482422,83.13999938964844,83.0338998413086,90.40844180598104,2.0121443612234935,0.48268825,-6.199885559275572,6392.863935783797,0.0,6386.664050224522,0,79.14357348850795,7142.611537781144
2019-12-30 00:00:00+00:00,82.9000015258789,82.38999938964844,83.00114982604981,84.51129121207723,1.842857905796596,0.35392976,-6.199885559275572,6335.19436653871,0.0,6328.994480979434,0,79.14357348850795,7078.178548935069
2019-12-31 00:00:00+00:00,81.8499984741211,83.76000213623047,82.96884983062745,79.18519149817627,1.7821431841169084,0.41261727,-6.199885559275572,6440.537657552006,0.0,6434.33777199273,0,79.62571253095355,7195.87637785455
2020-01-02 00:00:00+00:00,84.31999969482422,84.13999938964844,82.92804985046386,80.6740207511103,1.856428963797433,0.50768244,-6.199885559275572,6469.756694777247,0.0,6463.556809217971,0,79.62571253095355,7228.522189575909
2020-01-03 00:00:00+00:00,85.58000183105469,84.98999786376953,82.88434986114503,82.10169904543822,1.8628578186035156,0.5874097,6519.112863899475,0.0,0.0,6519.112863899475,-1,0.0,7301.546112512208
2020-01-06 00:00:00+00:00,85.9000015258789,88.44000244140625,82.82984985351563,80.5309744388357,1.8657150268554688,0.54192376,6519.112863899475,0.0,0.0,6519.112863899475,0,0.0,7597.938254471906
2020-01-07 00:00:00+00:00,88.62999725341797,89.29000091552734,82.78769985198974,91.00697854410488,2.0114293779645647,0.7186187,6519.112863899475,0.0,0.0,6519.112863899475,0,0.0,7670.962177408205
2020-01-08 00:00:00+00:00,89.23999786376953,87.33999633789062,82.7657498550415,90.01407306488923,1.9707145690917969,0.42990574,6519.112863899475,0.0,0.0,6519.112863899475,0,0.0,7503.4360131406565
2020-01-09 00:00:00+00:00,86.55000305175781,88.25,82.73854984283447,77.93057102314782,2.040714808872768,0.5108425,6519.112863899475,0.0,0.0,6519.112863899475,0,0.0,7581.615020888096
2020-01-10 00:00:00+00:00,87.55000305175781,86.2699966430664,82.70594985961914,76.59721802037701,2.120000566755022,0.546153,6519.112863899475,0.0,0.0,6519.112863899475,0,0.0,7411.511641938107
2020-01-13 00:00:00+00:00,85.87999725341797,85.5199966430664,82.66434986114501,65.96690144734922,2.129286084856306,0.29874822,6519.112863899475,0.0,0.0,6519.112863899475,0,0.0,7347.078653092031
2020-01-14 00:00:00+00:00,85.37000274658203,86.33000183105469,82.6157498550415,59.495325345479515,2.097857339041574,0.4601875,6519.112863899475,0.0,0.0,6519.112863899475,0,0.0,7416.6667267492485
2020-01-15 00:00:00+00:00,85.68000030517578,86.73999786376953,82.5714998626709,59.73597791307254,2.1278577532087053,0.51037145,6519.112863899475,0.0,0.0,6519.112863899475,0,0.0,7451.889753153048
2020-01-16 00:00:00+00:00,86.95999908447266,87.0199966430664,82.52049983978272,59.682742499851585,2.156428745814732,0.48663205,6519.112863899475,0.0,0.0,6519.112863899475,0,0.0,7475.944630784182
2020-01-17 00:00:00+00:00,87.06999969482422,85.30999755859375,82.47534980773926,61.04915325752179,2.1707142421177457,0.5219467,6519.112863899475,0.0,0.0,6519.112863899475,0,0.0,7329.037494868682
2020-01-21 00:00:00+00:00,85.0999984741211,84.04000091552734,82.43224979400635,56.595734216030266,2.2907142639160156,0.47547027,-6.519112863899863,6515.854936431259,0.0,6509.3358235673595,1,78.79785483224052,7219.931255485683
2020-01-22 00:00:00+00:00,84.04000091552734,83.08999633789062,82.38409980773926,54.86152228592765,2.3528573172433034,0.50193256,-6.519112863899863,6442.198440127214,0.0,6435.679327263314,0,78.79785483224052,7138.315743012902
2020-01-23 00:00:00+00:00,82.0999984741211,81.83000183105469,82.30639980316163,47.975814600391196,2.275714329310826,0.48814887,-6.519112863899863,6344.507562714023,0.0,6337.988449850123,0,78.79785483224052,7030.068793672801
2020-01-24 00:00:00+00:00,81.19999694824219,79.8499984741211,82.21814979553223,43.373503992426166,2.373571123395647,0.4440521,-6.519112863899863,6190.992397234741,0.0,6184.473284370841,0,78.79785483224052,6859.965414722812
2020-01-27 00:00:00+00:00,77.58999633789062,76.63999938964844,82.12454978942871,36.15302844552258,2.378571101597377,0.3897732,5926.679961881421,0.0,0.0,5926.679961881421,-1,0.0,6584.192301115164
2020-01-28 00:00:00+00:00,77.47000122070312,77.05000305175781,82.01409976959229,17.794764370381415,2.3028564453125,0.5357389,5926.679961881421,0.0,0.0,5926.679961881421,0,0.0,6619.415982965221
2020-01-29 00:00:00+00:00,77.66999816894531,75.13999938964844,81.90569976806641,15.77184200555044,2.249999455043248,0.42102143,-5.926679961881746,5923.7181028300065,0.0,5917.791422868125,1,73.59571838378906,6455.326323423014
2020-01-30 00:00:00+00:00,74.12999725341797,75.81999969482422,81.75484977722168,15.807205666403817,2.273571014404297,0.5749387,-5.926679961881746,5977.326435947117,0.0,5971.399755985235,0,73.59571838378906,6513.745592861306
2020-01-31 00:00:00+00:00,74.31999969482422,72.91000366210938,81.62334976196288,14.707568172702878,2.1835708618164062,0.6206869,-5.926679961881746,5747.914720240726,0.0,5741.988040278844,0,73.59571838378906,6263.74593697059
2020-02-03 00:00:00+00:00,72.83000183105469,71.37000274658203,81.47614978790283,13.969815745372685,2.2699993678501675,0.582506,5612.141153842329,0.0,0.0,5612.141153842329,-1,0.0,6131.4434545531
2020-02-04 00:00:00+00:00,72.91000366210938,73.62000274658203,81.32379981994629,13.398881126522141,2.255713871547154,0.5053006,-5.612141153842458,5609.33648559953,0.0,5603.724344445687,1,67.96500369480678,6324.742421091324
2020-02-05 00:00:00+00:00,75.5,77.05000305175781,81.17254981994628,19.402982332067722,2.350713457380022,0.6486109,-5.612141153842458,5870.678853701156,0.0,5865.066712547314,0,70.2364319392613,6619.415982965221
2020-02-06 00:00:00+00:00,77.4000015258789,75.87000274658203,81.02244983673096,29.634311811823054,2.553570883614676,0.6243142,-5.612141153842458,5780.770968372418,0.0,5775.158827218575,0,73.52393286568778,6518.041387629547
2020-02-07 00:00:00+00:00,74.8499984741211,74.3499984741211,80.86879985809327,27.420022691951843,2.6078567504882812,0.5015905,-5.612141153842458,5664.957125589342,0.0,5659.344984435499,0,73.52393286568778,6387.456829851599
2020-02-10 00:00:00+00:00,73.9000015258789,73.69999694824219,80.72084983825684,27.63266189334402,2.5457142421177457,0.5297513,-5.612141153842458,5615.431492082391,0.0,5609.819350928548,0,73.52393286568778,6331.61477509575
2020-02-11 00:00:00+00:00,75.12999725341797,74.79000091552734,80.57894981384277,28.350086787447594,2.4850000653948103,0.57207674,-5.612141153842458,5698.482277127692,0.0,5692.87013597385,0,73.52393286568778,6425.2577263840985
2020-02-12 00:00:00+00:00,76.5999984741211,75.37999725341797,80.46349983215332,32.72274914518596,2.5128577096121654,0.61616915,-5.612141153842458,5743.435929138438,0.0,5737.823787984596,0,73.52393286568778,6475.944696328807
2020-02-13 00:00:00+00:00,75.0,75.68000030517578,80.35539981842041,36.18843514948521,2.4900011335100447,0.62772745,-5.612141153842458,5766.294092697722,0.0,5760.681951543879,0,73.52393286568778,6501.7181540457395
2020-02-14 00:00:00+00:00,76.0,74.91999816894531,80.2535498046875,40.37841350679798,2.3778582981654575,0.5494339,-5.612141153842458,5708.3871713061835,0.0,5702.775030152341,0,73.52393286568778,6436.425875156765
2020-02-18 00:00:00+00:00,74.52999877929688,74.52999877929688,80.16869979858399,45.52549493437457,2.316430228097098,0.5215144,-5.612141153842458,5678.671907463463,0.0,5673.0597663096205,0,73.52393286568778,6402.920773392507
2020-02-19 00:00:00+00:00,74.93000030517578,77.27999877929688,80.09549980163574,43.43749304296188,2.3292873927525113,0.46567535,-5.612141153842458,5888.20294196366,0.0,5882.590800809818,0,73.52393286568778,6639.175065828113
2020-02-20 00:00:00+00:00,76.79000091552734,75.98999786376953,80.02739978790284,55.339317553936894,2.346430097307478,0.67262006,-5.612141153842458,5789.913768750334,0.0,5784.301627596492,0,73.78606769016811,6528.350246359313
2020-02-21 00:00:00+00:00,74.87000274658203,74.20999908447266,79.95114978790284,50.411617656572254,2.295001438685826,0.45324776,-5.612141153842458,5654.290137610275,0.0,5648.677996456433,0,73.78606769016811,6375.429391036031
2020-02-24 00:00:00+00:00,71.33000183105469,69.91000366210938,79.86329978942871,53.329904273128214,2.2257156372070312,0.44400683,5313.058010173617,0.0,0.0,5313.058010173617,-1,0.0,6006.013981586292
2020-02-25 00:00:00+00:00,70.1500015258789,66.98999786376953,79.74269981384278,46.72352184510286,2.4457152230398997,0.36243957,5313.058010173617,0.0,0.0,5313.058010173617,0,0.0,5755.15438020642
2020-02-26 00:00:00+00:00,67.72000122070312,63.20000076293945,79.60644981384277,35.55555259840601,2.541429247174944,0.47292992,5313.058010173617,0.0,0.0,5313.058010173617,0,0.0,5429.553258973834
2020-02-27 00:00:00+00:00,60.59000015258789,60.0,79.44744981765747,20.29172685477971,2.565000261579241,0.5120471,5313.058010173617,0.0,0.0,5313.058010173617,0,0.0,5154.639107685956
2020-02-28 00:00:00+00:00,57.29999923706055,63.2599983215332,79.27994981765747,18.673515949757885,2.745714732578823,0.47920424,5313.058010173617,0.0,0.0,5313.058010173617,0,0.0,5434.707688338718
2020-03-02 00:00:00+00:00,63.810001373291016,62.86000061035156,79.12454982757568,29.516071821871776,3.099285943167551,0.54732347,5313.058010173617,0.0,0.0,5313.058010173617,0,0.0,5400.343624254689
2020-03-03 00:00:00+00:00,62.93000030517578,62.43000030517578,78.96704982757568,29.79120719226424,3.274285997663226,0.6499235,-5.313058010173336,5310.402808769232,0.0,5305.089750759059,1,58.21107169560024,5363.402017765089
2020-03-04 00:00:00+00:00,63.619998931884766,64.08000183105469,78.80329982757569,26.376142038337704,3.475000108991351,0.5320092,-5.313058010173336,5450.754766076117,0.0,5445.441708065944,0,58.21107169560024,5505.154724315704
2020-03-05 00:00:00+00:00,61.77999877929688,61.869998931884766,78.65859985351562,29.243212864760125,3.482142857142857,0.47816983,-5.313058010173336,5262.768132313966,0.0,5257.455074303793,0,58.86750166756766,5315.291934779693
2020-03-06 00:00:00+00:00,58.91999816894531,55.29999923706055,78.49954984664917,26.295913375122936,3.6307144165039062,0.5349083,-5.313058010173336,4703.912699630026,0.0,4698.599641619852,0,58.86750166756766,4750.858978705931
2020-03-09 00:00:00+00:00,38.220001220703125,37.59999847412109,78.29789985656738,21.923297504796395,4.032142639160156,0.5828833,3188.2097647648643,0.0,0.0,3188.2097647648643,-1,0.0,3230.240376393948
2020-03-10 00:00:00+00:00,39.880001068115234,41.59999847412109,78.02134983062744,14.660286788912657,5.379999705723354,0.5565009,-3.188209764764906,3186.616456536596,0.0,3183.4282467718313,1,31.551784515380852,3573.8829835730126
2020-03-11 00:00:00+00:00,39.45000076293945,38.86000061035156,77.78509983062744,16.65420532182982,5.577142442975726,0.5618971,-3.188209764764906,2976.728893944623,0.0,2973.540684179858,0,33.529998915536055,3338.4879811803066
2020-03-12 00:00:00+00:00,35.189998626708984,32.5,77.54359981536865,16.214741295759296,5.745713642665318,0.5493931,-3.188209764764906,2489.5441979851535,0.0,2486.3559882203886,0,33.529998915536055,2792.096183329894
2020-03-13 00:00:00+00:00,35.25,34.79999923706055,77.2705498123169,14.967243456926226,6.092856815883091,0.6120532,-3.188209764764906,2665.7272674003643,0.0,2662.5390576355994,0,33.529998915536055,2989.69061691323
2020-03-16 00:00:00+00:00,29.989999771118164,31.100000381469727,77.01239980697632,19.48548336302376,6.147142682756696,0.5800847,2375.540660043342,0.0,0.0,2375.540660043342,-1,0.0,2671.821303589534
2020-03-17 00:00:00+00:00,31.38999938964844,30.88999938964844,76.74809981346131,19.22483265348029,6.376428604125977,0.49287558,-2.375540660043498,2374.3534833016915,0.0,2371.977942641648,1,21.87928635733468,2653.7799815046205
2020-03-18 00:00:00+00:00,28.190000534057617,29.76000022888184,76.49314982414245,20.482366486290402,6.300000463213239,0.5008909,-2.375540660043498,2287.496328995846,0.0,2285.1207883358024,0,21.87928635733468,2556.7010170756234
2020-03-19 00:00:00+00:00,29.940000534057617,33.220001220703125,76.22719984054565,21.287503841024872,6.241428783961704,0.47893074,-2.375540660043498,2553.4485973507362,0.0,2551.0730566906927,0,21.87928635733468,2853.951957493526
2020-03-20 00:00:00+00:00,34.689998626708984,34.88999938964844,75.97189985275268,21.58532278227807,6.08928598676409,0.48189044,-2.375540660043498,2681.812664941865,0.0,2679.4371242818215,0,23.85785804476057,2997.4225886836844
2020-03-23 00:00:00+00:00,34.599998474121094,34.540000915527344,75.73619985580444,24.16404889205222,6.10928589957101,0.46246895,-2.375540660043498,2654.91010383472,0.0,2652.5345631746764,0,25.7560704095023,2967.3539916447676
2020-03-24 00:00:00+00:00,36.43999862670898,39.79999923706055,75.48754987716674,24.19981518593376,6.03071403503418,0.55712146,-2.375540660043498,3059.2187986765407,0.0,3056.843258016497,0,25.7560704095023,3419.2438758870603
2020-03-25 00:00:00+00:00,39.09000015258789,39.68999862670898,75.26354988098144,28.9455391385834,6.26214245387486,0.56997275,-2.375540660043498,3050.7636242668873,0.0,3048.388083606844,0,30.753928184509277,3409.793651753935
2020-03-26 00:00:00+00:00,36.119998931884766,39.52999877929688,75.03599988937378,30.039594309301492,6.369285038539341,0.5765023,-2.375540660043498,3038.4652687299185,0.0,3036.089728069875,0,30.753928184509277,3396.0479605756987
2020-03-27 00:00:00+00:00,37.83000183105469,36.0,74.80114988327027,33.957271193229516,6.089285169328962,0.28730208,-2.375540660043498,2767.132634761561,0.0,2764.7570941015174,0,30.753928184509277,3092.7834646115753
2020-03-30 00:00:00+00:00,35.0099983215332,34.97999954223633,74.55599988937378,47.71298049547338,4.9635707310267865,0.35547295,-2.375540660043498,2688.7305082574057,0.0,2686.3549675973622,0,30.753928184509277,3005.1545604541384
2020-03-31 00:00:00+00:00,36.900001525878906,35.91999816894531,74.29844989776612,39.65624920105273,4.719285147530693,0.33291546,-2.375540660043498,2760.983310385114,0.0,2758.6077697250703,0,30.753928184509277,3085.9104551608925
2020-04-01 00:00:00+00:00,34.56999969482422,34.599998474121094,74.05219989776612,45.13244518025349,4.68999971662249,0.43932658,-2.375540660043498,2659.5218039011306,0.0,2657.146263241087,0,30.753928184509277,2972.5084210096516
2020-04-02 00:00:00+00:00,36.630001068115234,38.29999923706055,73.7978498840332,54.17328919342906,4.344999585832869,0.43112642,-2.375540660043498,2943.921605561476,0.0,2941.5460649014326,0,30.753928184509277,3290.3778981949113
2020-04-03 00:00:00+00:00,40.0,39.88999938964844,73.54784986495972,56.58885697068324,4.579285485403879,0.42492363,-2.375540660043498,3066.1366419920823,0.0,3063.761101332039,0,31.782499858311244,3426.975847657515
2020-04-06 00:00:00+00:00,40.68000030517578,39.43000030517578,73.30404985427856,67.97546173644164,4.222857066563199,0.3509419,-2.375540660043498,3030.778906475284,0.0,3028.4033658152407,0,33.02107116154262,3387.4570264854733
2020-04-07 00:00:00+00:00,42.0,41.33000183105469,73.04394987106323,67.28745604800426,4.198571205139161,0.35772234,-2.375540660043498,3176.822135040736,0.0,3174.4465943806927,0,33.095714705330984,3550.6873959847794
2020-04-08 00:00:00+00:00,42.2599983215332,45.290000915527344,72.7887498664856,72.71300283650787,4.171428271702358,0.35040432,-2.375540660043498,3481.206654492686,0.0,3478.8311138326426,0,35.03214502334595,3890.893498438502
2020-04-09 00:00:00+00:00,47.25,44.81999969482422,72.56239988327026,73.23835708764484,4.119285311017718,0.33767968,3437.536946000595,0.0,0.0,3437.536946000595,-1,0.0,3850.5153872235605
2020-04-13 00:00:00+00:00,46.20000076293945,43.290000915527344,72.33629987716675,70.04441188730264,4.191428320748465,0.23833063,3437.536946000595,0.0,0.0,3437.536946000595,0,0.0,3719.0721948489695
2020-04-14 00:00:00+00:00,42.84999847412109,42.22999954223633,72.08729990005493,66.85934687310368,4.249999727521624,0.31747377,3437.536946000595,0.0,0.0,3437.536946000595,0,0.0,3628.0067859661917
2020-04-15 00:00:00+00:00,39.369998931884766,39.88999938964844,71.83789989471435,55.58620759452728,3.982142584664481,0.35521442,3437.536946000595,0.0,0.0,3437.536946000595,0,0.0,3426.975847657515
2020-04-16 00:00:00+00:00,39.54999923706055,36.52000045776367,71.57154987335205,50.41701577428207,3.880714144025529,0.34278274,3437.536946000595,0.0,0.0,3437.536946000595,0,0.0,3137.4570428716293
2020-04-17 00:00:00+00:00,37.54999923706055,41.84000015258789,71.28869989395142,44.46487959763728,3.838571003505161,0.38048896,3437.536946000595,0.0,0.0,3437.536946000595,0,0.0,3594.501684201934
2020-04-20 00:00:00+00:00,39.02999877929688,41.16999816894531,71.06009990692138,60.075914843260044,3.907142639160154,0.3388048,3437.536946000595,0.0,0.0,3437.536946000595,0,0.0,3536.941377083414
2020-04-21 00:00:00+00:00,39.27000045776367,40.5,70.8299499130249,60.810336000825366,4.029285430908202,0.38723028,3437.536946000595,0.0,0.0,3437.536946000595,0,0.0,3479.3813976880224
2020-04-22 00:00:00+00:00,42.68999862670898,43.150001525878906,70.58959991455077,58.07475622507016,3.9392852783203116,0.48870987,3437.536946000595,0.0,0.0,3437.536946000595,0,0.0,3707.0447560334037
2020-04-23 00:00:00+00:00,45.25,44.220001220703125,70.35459991455077,64.39879142285056,3.9721426282610204,0.3961994,3437.536946000595,0.0,0.0,3437.536946000595,0,0.0,3798.969127235953
2020-04-24 00:00:00+00:00,45.0,43.36000061035156,70.1299499130249,60.93865794807295,3.5521422794886988,0.23335913,3437.536946000595,0.0,0.0,3437.536946000595,0,0.0,3725.0859142567533
2020-04-27 00:00:00+00:00,42.86000061035156,44.540000915527344,69.89344989776612,56.58944355830989,3.5185707637241896,0.29338264,3437.536946000595,0.0,0.0,3437.536946000595,0,0.0,3826.460509592427
2020-04-28 00:00:00+00:00,46.040000915527344,44.97999954223633,69.6619499206543,59.44547140883783,3.500713893345424,0.2815448,3437.536946000595,0.0,0.0,3437.536946000595,0,0.0,3864.261078401798
2020-04-29 00:00:00+00:00,47.20000076293945,47.720001220703125,69.43234991073608,57.13168754946808,3.4149998256138394,0.2713254,3437.536946000595,0.0,0.0,3437.536946000595,0,0.0,4099.656408517633
2020-04-30 00:00:00+00:00,47.79999923706055,47.5099983215332,69.2271999168396,54.98563814067891,3.333571570260184,0.12911318,3437.536946000595,0.0,0.0,3437.536946000595,0,0.0,4081.614922571155
2020-05-01 00:00:00+00:00,46.13999938964844,44.56999969482422,69.02974990844727,55.57859421700902,3.2064285278320312,0.26878288,3437.536946000595,0.0,0.0,3437.536946000595,0,0.0,3829.0377242748696
2020-05-04 00:00:00+00:00,43.5,46.7400016784668,68.82664989471435,52.507834176203346,3.1657142639160156,0.33358708,3437.536946000595,0.0,0.0,3437.536946000595,0,0.0,4015.4640090855382
2020-05-05 00:00:00+00:00,48.5,46.04999923706055,68.63319990158081,58.46789580858133,3.296428680419922,0.2489324,3437.536946000595,0.0,0.0,3437.536946000595,0,0.0,3956.1854496043475
2020-05-06 00:00:00+00:00,46.13999938964844,45.84000015258789,68.42824989318848,62.32986004235944,3.3000000544956762,0.35385683,3437.536946000595,0.0,0.0,3437.536946000595,0,0.0,3938.1442913809974
2020-05-07 00:00:00+00:00,47.56999969482422,48.310001373291016,68.22139989852906,71.3565457479972,3.1564290182931094,0.5112706,3437.536946000595,0.0,0.0,3437.536946000595,0,0.0,4150.34370618547
2020-05-08 00:00:00+00:00,49.29999923706055,51.45000076293945,68.02499992370605,67.05323721763136,3.0107146671840135,0.18119319,3437.536946000595,0.0,0.0,3437.536946000595,0,0.0,4420.103100385335
2020-05-11 00:00:00+00:00,50.7400016784668,49.84000015258789,67.84384992599487,73.97387964613203,2.940000261579241,0.18094318,3437.536946000595,0.0,0.0,3437.536946000595,0,0.0,4281.786898560061
2020-05-12 00:00:00+00:00,50.0099983215332,49.720001220703125,67.66569992065429,70.86683762469423,2.9471432822091237,0.2412708,3437.536946000595,0.0,0.0,3437.536946000595,0,0.0,4271.477712107165
2020-05-13 00:00:00+00:00,49.45000076293945,48.20000076293945,67.49284992218017,66.54911252595846,2.8757147107805525,0.30205187,3437.536946000595,0.0,0.0,3437.536946000595,0,0.0,4140.8934820523455
2020-05-14 00:00:00+00:00,47.13999938964844,47.560001373291016,67.31424993515014,59.80295121756493,2.8185721806117465,0.28886488,3437.536946000595,0.0,0.0,3437.536946000595,0,0.0,4085.9107173393954
2020-05-15 00:00:00+00:00,47.09000015258789,47.68000030517578,67.12174995422363,60.45816628576287,2.856429236275809,0.2299657,3437.536946000595,0.0,0.0,3437.536946000595,0,0.0,4096.219903792292
2020-05-18 00:00:00+00:00,50.5,52.43999862670898,66.9308999633789,58.25446551703386,2.7735721043178025,0.36443457,3437.536946000595,0.0,0.0,3437.536946000595,0,0.0,4505.1544621372
2020-05-19 00:00:00+00:00,52.290000915527344,50.65999984741211,66.78774995803833,65.98114356167547,2.965714863368444,0.17687382,3437.536946000595,0.0,0.0,3437.536946000595,0,0.0,4352.233606813919
2020-05-20 00:00:00+00:00,51.650001525878906,52.650001525878906,66.62874996185303,56.56836122611648,2.913571766444616,0.28759637,3437.536946000595,0.0,0.0,3437.536946000595,0,0.0,4523.195948083681
2020-05-21 00:00:00+00:00,52.95000076293945,52.31999969482422,66.49699996948242,60.63742391372247,2.8764288766043538,0.22244091,3437.536946000595,0.0,0.0,3437.536946000595,0,0.0,4494.845275684306
2020-05-22 00:00:00+00:00,52.209999084472656,52.27999877929688,66.36719997406006,67.98143596426166,2.7535719190325065,0.23931803,3437.536946000595,0.0,0.0,3437.536946000595,0,0.0,4491.408770958965
2020-05-26 00:00:00+00:00,54.36000061035156,51.43999862670898,66.24084995269776,64.26363680008126,2.6028575897216806,0.34924006,3437.536946000595,0.0,0.0,3437.536946000595,0,0.0,4419.243810342436
2020-05-27 00:00:00+00:00,52.27999877929688,52.72999954223633,66.09624994277954,63.77107683166792,2.572143282209125,0.47187752,3437.536946000595,0.0,0.0,3437.536946000595,0,0.0,4530.068629811234
2020-05-28 00:00:00+00:00,52.61000061035156,51.63999938964844,65.96304992675782,66.68280600160406,2.6385716029575903,0.26651967,3437.536946000595,0.0,0.0,3437.536946000595,0,0.0,4436.426006246014
2020-05-29 00:00:00+00:00,51.47999954223633,50.970001220703125,65.83164993286132,58.64036828129361,2.511428560529436,0.38497764,3437.536946000595,0.0,0.0,3437.536946000595,0,0.0,4378.866026850623
2020-06-01 00:00:00+00:00,50.720001220703125,51.810001373291016,65.69389995574952,48.57142986489709,2.4050001416887556,0.3803572,3437.536946000595,0.0,0.0,3437.536946000595,0,0.0,4451.030987467151
2020-06-02 00:00:00+00:00,52.5,54.810001373291016,65.57784997940064,56.14473290439477,2.3657142094203403,0.36252537,3437.536946000595,0.0,0.0,3437.536946000595,0,0.0,4708.762942851449
2020-06-03 00:00:00+00:00,56.11000061035156,55.369998931884766,65.47719997406006,63.45848808007165,2.452142442975725,0.24519731,3437.536946000595,0.0,0.0,3437.536946000595,0,0.0,4756.872698113715
2020-06-04 00:00:00+00:00,55.0,55.150001525878906,65.37444997787476,69.97214313645952,2.463570731026785,0.5466462,3437.536946000595,0.0,0.0,3437.536946000595,0,0.0,4737.972577570595
2020-06-05 00:00:00+00:00,59.209999084472656,59.310001373291016,65.26114999771119,71.64860904383917,2.3557134355817513,0.47662517,-3.4375369460008187,3435.819036482354,0.0,3432.381499536353,1,51.454645429338726,5095.360875927896
2020-06-08 00:00:00+00:00,61.970001220703125,62.11000061035156,65.1742499923706,76.95874660939421,2.5585703168596523,0.3215077,-3.4375369460008187,3598.0225512029083,0.0,3594.5850142569075,0,55.776431219918386,5335.910635408615
2020-06-09 00:00:00+00:00,59.560001373291016,59.470001220703125,65.09869998931885,74.65579694458481,2.4392847333635594,0.2823162,-3.4375369460008187,3445.087802438248,0.0,3441.6502654922474,0,58.27214513506208,5109.106567106133
2020-06-10 00:00:00+00:00,58.02999877929688,55.630001068115234,65.01849998474121,71.51930260798086,2.52999905177525,0.31951737,3214.365705768207,0.0,0.0,3214.365705768207,-1,0.0,4779.209651105307
2020-06-11 00:00:00+00:00,51.77000045776367,51.150001525878906,64.93789999008179,56.67562744333369,2.611427852085658,0.31198984,3214.365705768207,0.0,0.0,3214.365705768207,0,0.0,4394.329970391531
2020-06-12 00:00:00+00:00,53.84999847412109,52.56999969482422,64.83239999771118,47.78995380892801,2.7978564671107695,0.350795,3214.365705768207,0.0,0.0,3214.365705768207,0,0.0,4516.322938632997
2020-06-15 00:00:00+00:00,49.72999954223633,52.209999084472656,64.73694997787476,50.52064813186046,2.947142192295619,0.40468344,3214.365705768207,0.0,0.0,3214.365705768207,0,0.0,4485.395051551181
2020-06-16 00:00:00+00:00,54.54999923706055,54.59999847412109,64.63534997940063,51.406650896988474,2.975713729858398,0.30650264,3214.365705768207,0.0,0.0,3214.365705768207,0,0.0,4690.72145690497
2020-06-17 00:00:00+00:00,54.5,52.47999954223633,64.53594995498658,53.28415806444905,3.0207135336739666,0.35531205,3214.365705768207,0.0,0.0,3214.365705768207,0,0.0,4508.590966862543
2020-06-18 00:00:00+00:00,52.0,52.93000030517578,64.42739994049072,51.423729622057415,3.047142301286969,0.31453428,3214.365705768207,0.0,0.0,3214.365705768207,0,0.0,4547.250825714813
2020-06-19 00:00:00+00:00,55.43999862670898,52.29999923706055,64.32139995574951,53.34699398122167,3.0942851475306914,0.3090678,3214.365705768207,0.0,0.0,3214.365705768207,0,0.0,4493.127023321635
2020-06-22 00:00:00+00:00,51.9900016784668,52.41999816894531,64.20504995346069,50.84278981095533,3.187142508370535,0.3288939,3214.365705768207,0.0,0.0,3214.365705768207,0,0.0,4503.436209774531
2020-06-23 00:00:00+00:00,53.18999862670898,52.459999084472656,64.08914995193481,45.43718207871278,3.0764282771519254,0.5146936,3214.365705768207,0.0,0.0,3214.365705768207,0,0.0,4506.872714499873
2020-06-24 00:00:00+00:00,51.56999969482422,48.95000076293945,63.969249935150145,44.33190399558495,3.0171427045549666,0.45559385,3214.365705768207,0.0,0.0,3214.365705768207,0,0.0,4205.326470898421
2020-06-25 00:00:00+00:00,48.43000030517578,50.72999954223633,63.81399993896484,39.29557704294504,3.160714285714286,0.54412574,3214.365705768207,0.0,0.0,3214.365705768207,0,0.0,4358.247326221703
2020-06-26 00:00:00+00:00,50.15999984741211,48.7599983215332,63.66714994430542,33.86003817964175,3.0235715593610495,0.5049289,-3.2143657057681594,3212.7593261051547,0.0,3209.5449603993866,1,45.9889281136649,4189.003237314613
2020-06-29 00:00:00+00:00,49.02999877929688,49.650001525878906,63.5057999420166,24.077661617067946,2.951428549630301,0.43048027,-3.2143657057681594,3271.4009625582553,0.0,3268.186596852487,0,45.9889281136649,4265.463992699382
2020-06-30 00:00:00+00:00,49.04999923706055,50.65999984741211,63.35564994812012,29.541667300726274,2.805714198521205,0.53501225,-3.2143657057681594,3337.948986318612,0.0,3334.7346206128436,0,45.9889281136649,4352.233606813919
2020-07-01 00:00:00+00:00,51.02999877929688,49.86000061035156,63.21199995040894,38.26168717136441,2.688571112496511,0.58592945,-3.2143657057681594,3285.237643040976,0.0,3282.0232773352077,0,46.4514285496303,4283.505150922732
2020-07-02 00:00:00+00:00,51.16999816894531,50.52000045776367,63.03309995651245,46.31217531622369,2.520714078630718,0.7533532,-3.2143657057681594,3328.7245326634643,0.0,3325.510166957696,0,46.4514285496303,4340.206167998353
2020-07-06 00:00:00+00:00,51.220001220703125,50.40999984741211,62.87959995269775,43.873283639029395,2.395714078630718,0.74892855,-3.2143657057681594,3321.476675835131,0.0,3318.262310129363,0,46.738929339817595,4330.755943865228
2020-07-07 00:00:00+00:00,49.68000030517578,48.11000061035156,62.72504995346069,44.53883711072185,2.3064283643450034,0.6516896,-3.2143657057681594,3169.9314696566116,0.0,3166.7171039508435,0,46.81642872946603,4133.161510281892
2020-07-08 00:00:00+00:00,48.27999877929688,47.43999862670898,62.55754995346069,30.20134805888368,2.2599999564034583,0.644613,-3.2143657057681594,3125.7855468601774,0.0,3122.5711811544093,0,46.81642872946603,4075.601203163371
2020-07-09 00:00:00+00:00,47.27999877929688,44.34000015258789,62.389749946594236,33.132529809745265,2.2192856924874427,0.56228906,-3.2143657057681594,2921.5289974040224,0.0,2918.3146316982543,0,46.81642872946603,3809.278313688848
2020-07-10 00:00:00+00:00,44.34000015258789,45.400001525878906,62.21079996109009,25.58271722913993,2.2757143293108233,0.6281148,2983.670261106808,0.0,0.0,2983.670261106808,-1,0.0,3900.3437225716266
2020-07-13 00:00:00+00:00,45.869998931884766,44.95000076293945,62.04499998092651,30.85461282806793,2.154999869210377,0.5587006,-2.9836702611069086,2982.179171521048,0.0,2979.195501259941,1,41.98643003191267,3861.6838637193564
2020-07-14 00:00:00+00:00,44.84000015258789,47.27999877929688,61.885900001525876,29.64578617140606,2.16285705566406,0.5198617,-2.9836702611069086,3136.761405917702,0.0,3133.7777356565953,0,41.98643003191267,4061.8555119851353
2020-07-15 00:00:00+00:00,48.290000915527344,47.459999084472656,61.74685001373291,37.45154927470023,2.257856913975304,0.6588845,-2.9836702611069086,3148.70341152063,0.0,3145.7197412595233,0,44.035713195800795,4077.319455526043
2020-07-16 00:00:00+00:00,46.52000045776367,47.81999969482422,61.60924999237061,45.69612489446323,2.154999869210377,0.71542,-2.9836702611069086,3172.5874227264867,0.0,3169.60375246538,0,44.0732137135097,4108.2473426078595
2020-07-17 00:00:00+00:00,47.83000183105469,47.15999984741211,61.47724998474121,40.84329999455294,2.1135711669921844,0.6544774,-2.9836702611069086,3128.800153210304,0.0,3125.816482949197,0,44.587499891008655,4051.546325532239
2020-07-20 00:00:00+00:00,46.93000030517578,47.70000076293945,61.355149974823,44.51303746766499,2.0928568158830885,0.6278746,-2.9836702611069086,3164.6261700190885,0.0,3161.6424997579816,0,44.587499891008655,4097.9381561549635
2020-07-21 00:00:00+00:00,48.70000076293945,50.41999816894531,61.244649963378905,43.1482753799121,2.1142856052943615,0.52848095,-2.9836702611069086,3345.082665527533,0.0,3342.0989952664263,0,44.587499891008655,4331.614906185
2020-07-22 00:00:00+00:00,49.61000061035156,50.18999862670898,61.14254997253418,49.24717157928868,2.189999989100863,0.33298045,-2.9836702611069086,3329.8234923868267,0.0,3326.83982212572,0,47.24856976100377,4311.855495598978
2020-07-23 00:00:00+00:00,49.58000183105469,48.84999847412109,61.038899974822996,51.07351346083304,2.137142726353235,0.56782705,-2.9836702611069086,3240.9220357226177,0.0,3237.938365461511,0,47.24856976100377,4196.735209085067
2020-07-24 00:00:00+00:00,49.13999938964844,49.040000915527344,60.93434995651245,44.79750135738086,2.122142519269669,0.5143627,-2.9836702611069086,3253.5276266832984,0.0,3250.5439564221915,0,47.24856976100377,4213.0584426688765
2020-07-27 00:00:00+00:00,48.810001373291016,48.560001373291016,60.83589994430542,45.75325839291486,2.0607139042445572,0.50778335,-2.9836702611069086,3221.6823627700437,0.0,3218.698692508937,0,47.24856976100377,4171.821369134163
2020-07-28 00:00:00+00:00,48.11000061035156,47.27000045776367,60.73574996948242,51.572329553843836,1.984285627092632,0.47731012,-2.9836702611069086,3136.098073643612,0.0,3133.1144033825053,0,47.24856976100377,4060.996549665365
2020-07-29 00:00:00+00:00,47.38999938964844,48.5,60.627549953460694,49.430682629422215,1.9778570447649255,0.55493563,-2.9836702611069086,3217.701609874514,0.0,3214.717939613407,0,47.24856976100377,4166.666612046151
2020-07-30 00:00:00+00:00,47.34000015258789,46.58000183105469,60.523799953460696,65.92649084277193,1.8642856052943628,0.71171,-2.9836702611069086,3090.320554221494,0.0,3087.3368839603872,0,47.24856976100377,4001.718317907302
2020-07-31 00:00:00+00:00,45.90999984741211,46.84999847412109,60.41574995040894,54.2385073953875,1.927142824445451,0.495313,3100.5872893168053,0.0,0.0,3100.5872893168053,-1,0.0,4024.913905495536
2020-08-03 00:00:00+00:00,46.86000061035156,46.369998931884766,60.30374994277954,56.914114019271814,1.886428833007812,0.5700189,3100.5872893168053,0.0,0.0,3100.5872893168053,0,0.0,3983.676831960824
2020-08-04 00:00:00+00:00,46.380001068115234,48.459999084472656,60.194699935913086,46.173254048041535,1.7671432495117183,0.5477255,-3.100587289316991,3099.0377704315897,0.0,3095.9371831422727,1,43.54035568237305,4163.23010732081
2020-08-05 00:00:00+00:00,49.869998931884766,50.75,60.10314994812012,53.62318960221546,1.807857513427734,0.6392972,-3.100587289316991,3245.4843132631618,0.0,3242.383725973845,0,45.80928421020508,4359.965578584375
2020-08-06 00:00:00+00:00,50.40999984741211,50.88999938964844,60.03469993591309,59.31341735327159,1.8392862592424666,0.60686284,-3.100587289316991,3254.437334405436,0.0,3251.336747116119,0,48.0382137298584,4371.993017399942
2020-08-07 00:00:00+00:00,47.0,48.810001373291016,59.95084991455078,62.26167225674648,1.7528580256870814,0.5992225,3113.6378490986303,0.0,0.0,3113.6378490986303,-1,0.0,4193.299032082856
2020-08-10 00:00:00+00:00,48.9900016784668,50.459999084472656,59.847049922943114,53.31343616253439,2.0457150595528737,0.5547533,-3.1136378490987227,3112.081808194533,0.0,3108.9681703454344,1,46.180714334760395,4335.051410910342
2020-08-11 00:00:00+00:00,52.0,49.41999816894531,59.73964990615845,50.127553994924874,1.9528579711914062,0.47024935,-3.1136378490987227,3047.9405480193177,0.0,3044.826910170219,0,47.39142649514335,4245.704254390234
2020-08-12 00:00:00+00:00,50.33000183105469,49.09000015258789,59.62689989089966,47.66524943305964,2.10142925807408,0.48784807,-3.1136378490987227,3027.5881730276537,0.0,3024.474535178555,0,47.39142649514335,4217.353909713989
2020-08-13 00:00:00+00:00,48.77000045776367,47.41999816894531,59.50994987487793,50.77519962024657,2.112858091081893,0.6124469,-3.1136378490987227,2924.5920793447644,0.0,2921.4784414956657,0,47.39142649514335,4073.882950800703
2020-08-14 00:00:00+00:00,47.34999847412109,47.970001220703125,59.39179985046387,45.22404609654669,2.142143794468472,0.465944,2950.961688951327,0.0,0.0,2950.961688951327,-1,0.0,4121.134071466327
2020-08-17 00:00:00+00:00,47.900001525878906,46.540000915527344,59.272599868774414,48.2677618074291,2.1228577750069766,0.4755065,2950.961688951327,0.0,0.0,2950.961688951327,0,0.0,3998.2818131819613
2020-08-18 00:00:00+00:00,46.31999969482422,46.34999847412109,59.15719985961914,47.874199814759415,2.150000708443779,0.49240202,2950.961688951327,0.0,0.0,2950.961688951327,0,0.0,3981.9585795981525
2020-08-19 00:00:00+00:00,46.20000076293945,45.61000061035156,59.042399864196774,43.33539400747041,2.1092864445277635,0.3848816,2950.961688951327,0.0,0.0,2950.961688951327,0,0.0,3918.3848807949785
2020-08-20 00:00:00+00:00,44.959999084472656,44.09999847412109,58.91469985961914,46.7558480935799,2.0171437944684727,0.38815683,2950.961688951327,0.0,0.0,2950.961688951327,0,0.0,3788.659613059929
2020-08-21 00:00:00+00:00,44.08000183105469,43.38999938964844,58.76674983978271,41.507104427208056,2.052143641880581,0.36619464,2950.961688951327,0.0,0.0,2950.961688951327,0,0.0,3727.663128939197
2020-08-24 00:00:00+00:00,43.709999084472656,44.33000183105469,58.6136498260498,40.92570285207368,2.0507150377546046,0.4327933,2950.961688951327,0.0,0.0,2950.961688951327,0,0.0,3808.419351369079
2020-08-25 00:00:00+00:00,44.97999954223633,44.380001068115234,58.478199844360354,36.47676457469085,1.9742864881243034,0.49699974,2950.961688951327,0.0,0.0,2950.961688951327,0,0.0,3812.714818414191
2020-08-26 00:00:00+00:00,44.2400016784668,43.2599983215332,58.32639986038208,25.55641725069019,1.8621436527797164,0.6116477,2950.961688951327,0.0,0.0,2950.961688951327,0,0.0,3716.494652443401
2020-08-27 00:00:00+00:00,43.61000061035156,44.95000076293945,58.16919986724854,22.76945814484995,1.9014293125697554,0.61079043,-2.950961688951338,2949.4869454785876,0.0,2946.5359837896362,1,40.46678284236363,3861.6838637193573
2020-08-28 00:00:00+00:00,45.310001373291016,46.209999084472656,58.02484987258911,35.82967081228075,1.6214291708809994,0.6190473,-2.950961688951338,3032.164332299706,0.0,3029.2133706107547,0,42.09785679408482,3969.931140782586
2020-08-31 00:00:00+00:00,46.220001220703125,45.34000015258789,57.88944986343384,33.938032986736715,1.5857148851667138,0.7648463,-2.950961688951338,2975.0775592491905,0.0,2972.126597560239,0,43.777855328151155,3895.188965483616
2020-09-01 00:00:00+00:00,44.720001220703125,45.209999084472656,57.75309986114502,34.37980396307124,1.420715059552874,0.724804,-2.950961688951338,2966.547271222582,0.0,2963.5963095336306,0,43.777855328151155,3884.0204889878205
2020-09-02 00:00:00+00:00,44.720001220703125,43.70000076293945,57.61739986419678,34.9144734364684,1.3685722351074219,0.62875485,-2.950961688951338,2867.4656191321824,0.0,2864.514657443231,0,43.777855328151155,3754.2955489759
2020-09-03 00:00:00+00:00,43.709999084472656,43.130001068115234,57.46849985122681,35.35435059538521,1.3621436527797148,0.48915973,2822.8678567824936,0.0,0.0,2822.8678567824936,-1,0.0,3705.326503670734
2020-09-04 00:00:00+00:00,43.56999969482422,43.13999938964844,57.32784984588623,30.974849695478767,1.417143685477119,0.7140537,2822.8678567824936,0.0,0.0,2822.8678567824936,0,0.0,3706.1854659905052
2020-09-08 00:00:00+00:00,42.16999816894531,40.83000183105469,57.19154983520508,34.95574951933855,1.3807149614606569,0.60536206,-2.8228678567825227,2821.4571282183847,0.0,2818.634260361602,1,41.01428386143276,3507.7320700873984
2020-09-09 00:00:00+00:00,41.36000061035156,41.86000061035156,57.03539985656738,29.43369077104589,1.5314292907714824,0.48075217,-2.8228678567825227,2892.6326674683746,0.0,2889.809799611592,0,41.01428386143276,3596.2199365646056
2020-09-10 00:00:00+00:00,41.81999969482422,38.0,56.87809986114502,36.32385028652499,1.5592861175537085,0.7295631,-2.8228678567825227,2625.8967931456764,0.0,2623.073925288894,0,41.01428386143276,3264.604768201108
2020-09-11 00:00:00+00:00,38.47999954223633,39.04999923706055,56.70314987182617,31.008719170927876,1.7271431514195008,0.5856268,2691.5838654928225,0.0,0.0,2691.5838654928225,-1,0.0,3354.810887040987
2020-09-14 00:00:00+00:00,39.310001373291016,39.16999816894531,56.530799884796146,36.768290367935975,1.7378572736467603,0.7245241,-2.691583865492703,2690.2387461197627,0.0,2687.54716225427,1,36.459284509931294,3365.1200734938825
2020-09-15 00:00:00+00:00,39.5,38.59000015258789,56.367099857330324,33.440290168734876,1.7099999019077816,0.6330855,-2.691583865492703,2650.4038416209823,0.0,2647.7122577554896,0,36.563212258475176,3315.292065868945
2020-09-16 00:00:00+00:00,38.900001525878906,40.86000061035156,56.19829986572265,32.02978448448643,1.7292853764125253,0.67114305,-2.691583865492703,2806.3099807748777,0.0,2803.618396909385,0,36.563212258475176,3510.3092847698385
2020-09-17 00:00:00+00:00,39.86000061035156,41.18999862670898,56.04809986114502,43.04751156824178,1.8449995858328658,0.3958888,-2.691583865492703,2828.974609093682,0.0,2826.283025228189,0,38.266072545732776,3538.659629446084
2020-09-18 00:00:00+00:00,40.79999923706055,40.709999084472656,55.90009984970093,38.17608369548738,1.8264282771519231,0.56166655,-2.691583865492703,2796.0077102678433,0.0,2793.3161264023506,0,38.42249924795968,3497.4225559113725
2020-09-21 00:00:00+00:00,39.5,38.810001373291016,55.75974985122681,31.812154258291756,1.8085708618164043,0.5864462,-2.691583865492703,2665.5137684986,0.0,2662.822184633107,0,38.42249924795968,3334.192514135194
2020-09-22 00:00:00+00:00,39.06999969482422,38.45000076293945,55.59354984283447,29.7832683194365,1.8928563254220125,0.468322,-2.691583865492703,2640.7885288798147,0.0,2638.096945014322,0,38.42249924795968,3303.264627053378
2020-09-23 00:00:00+00:00,38.709999084472656,36.380001068115234,55.432849864959714,29.36506660919531,1.9449991498674646,0.551375,-2.691583865492703,2498.618663069424,0.0,2495.9270792039315,0,38.42249924795968,3125.4296040560625
2020-09-24 00:00:00+00:00,36.18000030517578,36.650001525878906,55.24494987487793,28.394317490598183,2.020713533673966,0.48447153,2510.695265028845,0.0,0.0,2510.695265028845,-1,0.0,3148.6255193674247
2020-09-25 00:00:00+00:00,36.25,37.45000076293945,55.05564987182617,30.528833421356268,2.0414276123046866,0.5573723,2510.695265028845,0.0,0.0,2510.695265028845,0,0.0,3217.3539752586116
2020-09-28 00:00:00+00:00,38.369998931884766,37.43999862670898,54.868699893951415,33.67756091813676,2.0678561074393125,0.66598165,-2.5106952650289713,2509.440544756467,0.0,2506.929849491438,1,34.38785934448242,3216.4946852157113
2020-09-29 00:00:00+00:00,37.2400016784668,36.18999862670898,54.68254989624023,38.7970764192259,1.9249989645821703,0.68048555,-2.5106952650289713,2425.658472213658,0.0,2423.147776948629,0,34.38785934448242,3109.1063704722537
2020-09-30 00:00:00+00:00,36.43999862670898,35.939998626708984,54.479949893951414,31.53093173539162,2.0007133483886714,0.49015737,-2.5106952650289713,2408.902057705097,0.0,2406.391362440068,0,34.38785934448242,3087.628707523563
2020-10-01 00:00:00+00:00,35.33000183105469,34.86000061035156,54.28219989776611,41.22656550831833,1.7928562164306636,0.5383736,-2.5106952650289713,2336.5144799830596,0.0,2334.0037847180306,0,34.38785934448242,2994.845374001243
2020-10-02 00:00:00+00:00,33.790000915527344,34.810001373291016,54.06694988250732,32.20050475514532,1.794999258858817,0.6944741,2327.1528080805106,0.0,0.0,2327.1528080805106,-1,0.0,2990.54990695613
2020-10-05 00:00:00+00:00,35.459999084472656,36.459999084472656,53.846949901580814,31.367524122590737,1.8214280264718192,0.6262699,-2.3271528080804273,2325.9898131739237,0.0,2323.6626603658433,1,32.11750248500279,3132.3022857836168
2020-10-06 00:00:00+00:00,37.18000030517578,35.9900016784668,53.62629991531372,41.66013208500077,1.8449995858328678,0.5816008,-2.3271528080804273,2296.0060170675392,0.0,2293.678864259459,0,33.727857044764924,3091.9245022918044
2020-10-07 00:00:00+00:00,36.0,36.709999084472656,53.399999923706055,27.803083540486128,1.7735710144042964,0.5282824,-2.3271528080804273,2341.9387289143287,0.0,2339.6115761062483,0,33.727857044764924,3153.779948732309
2020-10-08 00:00:00+00:00,37.11000061035156,37.66999816894531,53.17024990081787,30.281673347056397,1.7392853328159872,0.56600255,-2.3271528080804273,2403.1825069508086,0.0,2400.855354142728,0,34.04964256286621,3236.254095801734
2020-10-09 00:00:00+00:00,37.97999954223633,37.560001373291016,52.94169990539551,37.16214604838916,1.7364283970424101,0.6156203,-2.3271528080804273,2396.165188448389,0.0,2393.8380356403086,0,35.06107016972133,3226.8041993917377
2020-10-12 00:00:00+00:00,37.5099983215332,38.209999084472656,52.710449924468996,43.78108696758615,1.6349999564034594,0.58906025,-2.3271528080804273,2437.632223356756,0.0,2435.3050705486758,0,35.06107016972133,3282.645926424459
2020-10-13 00:00:00+00:00,38.63999938964844,38.63999938964844,52.48324991226196,48.83944859543152,1.637142726353236,0.579707,-2.3271528080804273,2465.0643778991434,0.0,2462.737225091063,0,35.75749914986747,3319.587532914059
2020-10-14 00:00:00+00:00,38.7599983215332,37.619998931884766,52.260749912261964,62.98851773196275,1.5799999237060542,0.64136297,-2.3271528080804273,2399.992772474956,0.0,2397.6656196668755,0,36.18428530011858,3231.958628756622
2020-10-15 00:00:00+00:00,36.54999923706055,38.08000183105469,52.036899909973144,55.13226927192713,1.5442859104701456,0.5788636,-2.3271528080804273,2429.338962391768,0.0,2427.0118095836874,0,36.18428530011858,3271.477777651792
2020-10-16 00:00:00+00:00,37.880001068115234,37.41999816894531,51.80849990844727,53.457748714739,1.568571908133371,0.49751544,-2.3271528080804273,2387.2335912104045,0.0,2384.906438402324,0,36.18428530011858,3214.776432853043
2020-10-19 00:00:00+00:00,37.52999877929688,36.18999862670898,51.57489990234375,49.897538533633515,1.7178573608398438,0.526459,-2.3271528080804273,2308.7649549709504,0.0,2306.43780216287,0,36.18428530011858,3109.1063704722555
2020-10-20 00:00:00+00:00,36.47999954223633,36.27999877929688,51.33089990615845,49.99999999281314,1.6364288330078125,0.5263573,-2.3271528080804273,2314.506574371943,0.0,2312.1794215638624,0,36.18428530011858,3116.838342242711
2020-10-21 00:00:00+00:00,36.290000915527344,35.119998931884766,51.0700998878479,51.77453284087271,1.6642859322684147,0.54124326,-2.3271528080804273,2240.503615070911,0.0,2238.1764622628307,0,36.18428530011858,3017.181999269707
2020-10-22 00:00:00+00:00,35.08000183105469,36.93000030517578,50.79924987792969,51.34574808254285,1.6635714939662378,0.4746854,2350.1127390544084,0.0,0.0,2350.1127390544084,-1,0.0,3172.6803969985594
2020-10-23 00:00:00+00:00,37.2599983215332,37.5099983215332,50.54719989776611,59.28196137608536,1.70571436200823,0.5052241,2350.1127390544084,0.0,0.0,2350.1127390544084,0,0.0,3222.508404623497
2020-10-26 00:00:00+00:00,36.77000045776367,34.93000030517578,50.29349988937378,55.07246269234774,1.6578570774623316,0.45555475,2350.1127390544084,0.0,0.0,2350.1127390544084,0,0.0,3000.8590934090275
2020-10-27 00:00:00+00:00,34.7400016784668,34.58000183105469,50.036799907684326,45.74638131226586,1.719285420009067,0.43702248,2350.1127390544084,0.0,0.0,2350.1127390544084,0,0.0,2970.7904963701108
2020-10-28 00:00:00+00:00,33.650001525878906,32.5099983215332,49.782099933624266,41.1910756833904,1.7028568812779008,0.53967845,2350.1127390544084,0.0,0.0,2350.1127390544084,0,0.0,2792.955145649667
2020-10-29 00:00:00+00:00,31.799999237060547,33.970001220703125,49.51299991607666,30.454547158996647,1.8035712923322398,0.42964336,-2.350112739054566,2348.938269919449,0.0,2346.5881571803943,1,29.955712999616352,2918.384946339603
2020-10-30 00:00:00+00:00,33.63999938964844,34.2400016784668,49.24914993286133,37.66323553455094,1.933571406773158,0.5800471,-2.350112739054566,2367.608107580518,0.0,2365.2579948414636,0,31.264644282204767,2941.5808616509653
2020-11-02 00:00:00+00:00,34.88999938964844,35.150001525878906,48.98524995803833,35.991550057379555,1.897142682756696,0.53168964,-2.350112739054566,2430.532258019007,0.0,2428.1821452799522,0,31.339644568307058,3019.759541675277
2020-11-03 00:00:00+00:00,35.91999816894531,35.02000045776367,48.73444997787475,38.08875193235035,1.9278567177908756,0.4428656,-2.350112739054566,2421.543018305934,0.0,2419.1929055668793,0,32.304287501743865,3008.5910651794816
2020-11-04 00:00:00+00:00,35.130001068115234,36.040000915527344,48.48934997558594,40.55233782699842,1.9157139914376384,0.4535118,-2.350112739054566,2492.073428211137,0.0,2489.7233154720825,0,32.304287501743865,3096.219969336918
2020-11-05 00:00:00+00:00,35.310001373291016,35.599998474121094,48.25409999847412,42.87709541433774,1.9578565870012545,0.5248663,-2.350112739054566,2461.648390344278,0.0,2459.2982776052236,0,33.16642992837089,3058.4190728044186
2020-11-06 00:00:00+00:00,36.29999923706055,34.58000183105469,48.02294998168945,43.54610316236063,1.8121425083705351,0.5174536,2385.181454110208,0.0,0.0,2385.181454110208,-1,0.0,2970.7904963701103
2020-11-09 00:00:00+00:00,39.45000076293945,40.310001373291016,47.79659999847412,44.204476510169926,1.9307139260428288,0.44792718,2385.181454110208,0.0,0.0,2385.181454110208,0,0.0,3463.058491827344
2020-11-10 00:00:00+00:00,41.0,42.18999862670898,47.614950008392334,60.31746558381039,2.348570959908622,0.3993684,2385.181454110208,0.0,0.0,2385.181454110208,0,0.0,3624.5702812408504
2020-11-11 00:00:00+00:00,42.75,41.90999984741211,47.44064998626709,67.45678936527266,2.446428298950196,0.44550398,2385.181454110208,0.0,0.0,2385.181454110208,0,0.0,3600.5154036097174
2020-11-12 00:00:00+00:00,40.810001373291016,40.4900016784668,47.27449998855591,63.30128266702159,2.417142595563617,0.35320562,2385.181454110208,0.0,0.0,2385.181454110208,0,0.0,3478.5224353682515
