,Open,Close,sma200,rsi,atr,prob_up,cash,holdings,borrowed_margin,total,signal,stop_loss,benchmark
2016-09-12 00:00:00+00:00,100.48,102.76,,,,0.99,10000.0,0.0,0.0,10000.0,0,0.0,10000.0
2016-09-13 00:00:00+00:00,101.71,101.16,,,,0.99,10000.0,0.0,0.0,10000.0,0,0.0,9844.298
2016-09-14 00:00:00+00:00,101.07,100.68,,,,0.99,10000.0,0.0,0.0,10000.0,0,0.0,9797.587
2016-09-15 00:00:00+00:00,100.69,101.24,,,,0.99,10000.0,0.0,0.0,10000.0,0,0.0,9852.083
2016-09-16 00:00:00+00:00,100.63,100.21,,,,0.99,10000.0,0.0,0.0,10000.0,0,0.0,9751.85
2016-09-19 00:00:00+00:00,100.93,101.08,,,,0.99,10000.0,0.0,0.0,10000.0,0,0.0,9836.513
2016-09-20 00:00:00+00:00,100.41,101.26,,,,0.99,10000.0,0.0,0.0,10000.0,0,0.0,9854.029
2016-09-21 00:00:00+00:00,101.8,102.46,,,,0.99,10000.0,0.0,0.0,10000.0,0,0.0,9970.806
2016-09-22 00:00:00+00:00,103.51,103.14,,,,0.7930179794177712,10000.0,0.0,0.0,10000.0,0,0.0,10036.979
2016-09-23 00:00:00+00:00,103.11,103.27,,,,0.9786751291394706,10000.0,0.0,0.0,10000.0,0,0.0,10049.629
2016-09-26 00:00:00+00:00,103.07,102.14,,,,0.99,10000.0,0.0,0.0,10000.0,0,0.0,9939.665
2016-09-27 00:00:00+00:00,102.0,102.45,,,,0.99,10000.0,0.0,0.0,10000.0,0,0.0,9969.832
2016-09-28 00:00:00+00:00,102.92,103.57,,,,0.99,10000.0,0.0,0.0,10000.0,0,0.0,10078.825
2016-09-29 00:00:00+00:00,103.65,102.06,,54.359516,,0.99,10000.0,0.0,0.0,10000.0,0,0.0,9931.88
2016-09-30 00:00:00+00:00,102.65,103.36,,46.759235,1.547142,0.75,-5015.0,14992.503748125939,5000.0,4977.503748125939,1,,10058.389
2016-10-03 00:00:00+00:00,103.27,103.44,,52.479332,1.4921417,0.7940129740119329,-5015.992063492064,15004.108334588505,5000.0,4988.116271096442,0,,10066.174
2016-10-04 00:00:00+00:00,103.8,102.05,,60.77504,1.3914278,0.9521184479237577,-5016.984126984127,14802.486908493955,5000.0,4785.502781509827,0,,9930.907
2016-10-05 00:00:00+00:00,102.3,101.58,,55.96172,1.4528563,0.99,-5017.976190476191,14734.312703612022,5000.0,4716.336513135831,0,,9885.17
2016-10-06 00:00:00+00:00,101.4,102.19,,51.491245,1.4499991,0.8580949825811877,-5018.968253968254,14822.794726188886,5000.0,4803.826472220631,0,,9944.532
2016-10-07 00:00:00+00:00,97.19,93.73,,59.016407,1.427142,0.7657341128418692,-5019.960317460318,13595.660355801143,5000.0,3575.700038340825,0,,9121.254
2016-10-10 00:00:00+00:00,94.31,93.85,,30.21002,2.022856,0.825123052897129,-5020.952380952382,13613.06536466089,5000.0,3592.112983708508,0,,9132.932
2016-10-11 00:00:00+00:00,93.25,92.3,,29.983776,2.039285,0.99,-5021.944444444445,13388.236439367338,5000.0,3366.2919949228926,0,,8982.095
2016-10-12 00:00:00+00:00,92.39,91.94,,23.064688,2.114999,0.9186006487005967,8293.077108481864,0.0,0.0,8293.077108481864,-1,0.0,8947.062
2016-10-13 00:00:00+00:00,91.01,92.12,,19.795034,2.0699985,0.99,-4158.978169903656,12433.398963241178,4146.538554240933,4127.882239096589,1,88.76750183105469,8964.578
2016-10-14 00:00:00+00:00,92.75,92.6,,20.010769,2.1464272,0.5521558123756235,-4159.800895807275,12498.183422746772,4146.538554240933,4191.843972698563,0,89.01500701904297,9011.288
2016-10-17 00:00:00+00:00,92.6,92.66,,23.411362,2.1257129,0.99,-4160.623621710894,12506.28251679027,4146.538554240933,4199.120340838443,0,89.38035583496094,9017.128
2016-10-18 00:00:00+00:00,93.75,92.81,,22.329021,2.0942845,0.99,-4161.446347614514,12526.526973355114,4146.538554240933,4218.542071499667,0,89.471435546875,9031.725
2016-10-19 00:00:00+00:00,92.82,92.56,,17.822948,2.064999,0.99,-4162.269073518133,12492.784855057307,4146.538554240933,4183.977227298241,0,89.66857147216797,9007.396
2016-10-20 00:00:00+00:00,92.69,92.66,,19.275534,1.9964278,0.99,-4163.0917994217525,12506.281982249493,4146.538554240933,4196.651628586807,0,89.66857147216797,9017.128
2016-10-21 00:00:00+00:00,91.42,92.38,,12.482465,2.0085704,0.99,-4163.914525325372,12468.489300184836,4146.538554240933,4158.036220618531,0,89.66857147216797,8989.879
2016-10-24 00:00:00+00:00,92.75,93.24,,11.75655,2.1092846,0.99,-4164.737251228991,12584.563592238932,4146.538554240933,4273.287786769008,0,89.66857147216797,9073.569
2016-10-25 00:00:00+00:00,90.55,91.22,,18.377584,2.027142,0.99,-4165.559977132611,12311.92531131848,4146.538554240933,3999.826779944937,0,90.0760726928711,8876.995
2016-10-26 00:00:00+00:00,91.01,92.52,,16.537457,2.199999,0.9273140591839186,-4166.38270303623,12487.385417109275,4146.538554240933,4174.464159832112,0,90.0760726928711,9003.503
2016-10-27 00:00:00+00:00,93.03,93.35,,20.098913,2.2335706,0.99,-4167.205428939849,12599.410939051004,4146.538554240933,4285.6669558702215,0,90.0760726928711,9084.274
2016-10-28 00:00:00+00:00,93.44,92.87,,47.775146,1.6214278,0.9827057221799543,-4168.028154843469,12534.625852927113,4146.538554240933,4220.059143842711,0,90.0760726928711,9037.563
2016-10-31 00:00:00+00:00,93.35,93.13,,44.494404,1.6564282,0.99,-4168.850880747088,12569.716675329368,4146.538554240933,4254.327240341347,0,90.43785858154297,9062.865
2016-11-01 00:00:00+00:00,93.25,92.74,,55.45332,1.5342859,0.99,-4169.673606650707,12517.078433431827,4146.538554240933,4200.866272540186,0,90.64535522460938,9024.912
2016-11-02 00:00:00+00:00,92.85,92.38,,55.235577,1.5850002,0.99,-4170.496332554327,12468.48948696683,4146.538554240933,4151.45460017157,0,90.64535522460938,8989.879
2016-11-03 00:00:00+00:00,92.76,91.75,,51.66237,1.5542853,0.99,-4171.319058457946,12383.459303403488,4146.538554240933,4065.6016907046087,0,90.64535522460938,8928.571
2016-11-04 00:00:00+00:00,92.02,92.81,,44.667507,1.5892851,0.99,-4172.141784361565,12526.526016609068,4146.538554240933,4207.84567800657,0,90.64535522460938,9031.724
2016-11-07 00:00:00+00:00,94.16,94.35,,50.836086,1.6949997,0.99,-4172.964510265185,12734.379898424724,4146.538554240933,4414.876833918606,0,90.64535522460938,9181.588
2016-11-08 00:00:00+00:00,93.83,94.74,,57.43244,1.7264284,0.7771102390581829,-4173.787236168804,12787.018503420675,4146.538554240933,4466.692713010938,0,91.8074951171875,9219.541
2016-11-09 00:00:00+00:00,92.36,95.29,,60.380962,1.774286,0.99,-4174.6099620724235,12861.251917843912,4146.538554240933,4540.103401530556,0,92.15035247802734,9273.063
2016-11-10 00:00:00+00:00,95.91,96.87,,62.009132,1.9978578,0.5490196078431373,-4175.432687976043,13074.503555124475,4146.538554240933,4752.532312907499,0,92.62857055664062,9426.819
2016-11-11 00:00:00+00:00,96.32,95.77,,68.32658,2.0507147,0.837405117526929,8730.392088321052,0.0,0.0,8730.392088321052,-1,0.0,9319.773
2016-11-14 00:00:00+00:00,96.4,96.05,,60.128105,2.097143,0.99,-4378.291632293007,13089.04361067624,4365.196044160526,4345.555934222708,1,92.69392395019531,9347.022
2016-11-15 00:00:00+00:00,96.1,96.23,,72.465126,1.9628574,0.99,-4379.157742619229,13113.572086146763,4365.196044160526,4369.2182993670085,0,92.90428924560547,9364.538
2016-11-16 00:00:00+00:00,95.96,96.36,,69.26275,1.9214287,0.99,-4380.023852945451,13131.28694406839,4365.196044160526,4386.067046962413,0,93.28572082519531,9377.188
2016-11-17 00:00:00+00:00,96.77,96.61,,66.85332,1.8928572,0.99,-4380.889963271673,13165.355686945719,4365.196044160526,4419.26967951352,0,93.47785949707031,9401.518
2016-11-18 00:00:00+00:00,96.23,95.19,,71.49423,1.7835715,0.99,-4381.756073597895,12971.84777413241,4365.196044160526,4224.8956563739885,0,93.77071380615234,9263.331
2016-11-21 00:00:00+00:00,95.56,96.19,,60.446266,1.8449996,0.99,-4382.622183924117,13108.121168370812,4365.196044160526,4360.302940286168,0,93.77071380615234,9360.6455
2016-11-22 00:00:00+00:00,96.45,96.62,,66.475655,1.7949998,0.99,-4383.488294250339,13166.719036314325,4365.196044160526,4418.03469790346,0,93.77071380615234,9402.491
2016-11-23 00:00:00+00:00,96.59,97.59,,70.11386,1.7278574,0.99,-4384.354404576561,13298.9024979379,4365.196044160526,4549.352049200812,0,93.92750549316406,9496.885
2016-11-25 00:00:00+00:00,97.63,98.13,,76.8382,1.7171434,0.5555555555555556,-4385.220514902783,13372.489815076426,4365.196044160526,4622.073256013116,0,94.99820709228516,9549.434
2016-11-28 00:00:00+00:00,97.92,97.35,,75.67565,1.6214288,0.5490196078431373,-4386.086625229005,13266.196747634287,4365.196044160526,4514.914078244756,0,95.55428314208984,9473.529
2016-11-29 00:00:00+00:00,97.35,98.0,,65.62499,1.6035718,0.5555555555555556,-4386.952735555227,13354.773979975456,4365.196044160526,4602.625200259703,0,95.55428314208984,9536.782
2016-11-30 00:00:00+00:00,98.46,95.93,,66.53144,1.5921429,0.88650006006487,-4387.818845881449,13072.68835957647,4365.196044160526,4319.673469534495,0,95.59464263916016,9335.342
2016-12-01 00:00:00+00:00,96.42,95.24,,52.811947,1.4328569,0.5490196078431373,-4388.684956207671,12978.659250826133,4365.196044160526,4224.778250457935,0,95.59464263916016,9268.195
2016-12-02 00:00:00+00:00,95.29,94.58,,42.23068,1.3635718,0.5490196078431373,8479.835399811767,0.0,0.0,8479.835399811767,-1,0.0,9203.968
2016-12-05 00:00:00+00:00,95.36,95.99,,44.079624,1.3328574,0.8211200096103792,-8.479835399812146,8475.597601011263,0.0,8467.11776561145,1,92.5346450805664,9341.181
2016-12-06 00:00:00+00:00,95.98,96.22,,49.73164,1.3821428,0.5555555555555556,-8.479835399812146,8495.906037378812,0.0,8487.426201979,0,93.99071502685547,9363.563
2016-12-07 00:00:00+00:00,96.31,98.18,,49.955467,1.3685716,0.99,-8.479835399812146,8668.96769910423,0.0,8660.487863704418,0,94.14678955078125,9554.299
2016-12-08 00:00:00+00:00,98.18,99.41,,56.967846,1.4607146,0.99,-8.479835399812146,8777.573062759555,0.0,8769.093227359743,0,96.12714385986328,9673.996
2016-12-09 00:00:00+00:00,99.48,99.3,,59.971527,1.5364287,0.99,8746.2285238661,0.0,0.0,8746.2285238661,-1,0.0,9663.291
2016-12-12 00:00:00+00:00,99.07,98.65,,66.142975,1.519286,0.99,-4386.233604718851,13112.786392602851,4373.114261933051,4353.438525950949,1,96.995361328125,9600.037
2016-12-13 00:00:00+00:00,98.13,97.05,,59.93538,1.587143,0.99,-4387.101286120028,12900.110630873089,4373.114261933051,4139.895082820009,0,96.995361328125,9444.334
2016-12-14 00:00:00+00:00,97.07,96.17,,51.586716,1.6814287,0.9842235214031154,-4387.968967521205,12783.138421058691,4373.114261933051,4022.055191604435,0,96.995361328125,9358.697
2016-12-15 00:00:00+00:00,96.2,96.1,,44.72512,1.7271423,0.99,8365.836278425053,0.0,0.0,8365.836278425053,-1,0.0,9351.885
2016-12-16 00:00:00+00:00,96.07,95.92,,42.186306,1.7778571,0.99,-4195.466893630164,12542.483176049556,4182.9181392125265,4164.098143206866,1,93.50928497314453,9334.368
2016-12-19 00:00:00+00:00,96.06,96.22,,44.229218,1.7464284,0.99,-4196.296837705405,12581.712227054206,4182.9181392125265,4202.497250136274,0,93.50928497314453,9363.563
2016-12-20 00:00:00+00:00,96.26,95.64,,42.607983,1.7050002,0.99,-4197.126781780646,12505.871209138348,4182.9181392125265,4125.826288145176,0,93.60035705566406,9307.12
2016-12-21 00:00:00+00:00,95.39,95.87,,48.62559,1.5607147,0.99,-4197.956725855886,12535.946931567285,4182.9181392125265,4155.072066498871,0,93.60035705566406,9329.503
2016-12-22 00:00:00+00:00,95.94,95.0,,53.121925,1.5035712,0.99,-4198.786669931127,12422.1856305069,4182.9181392125265,4040.480821363246,0,93.60035705566406,9244.84
2016-12-23 00:00:00+00:00,95.04,94.69,,52.038822,1.4828568,0.99,-4199.616614006368,12381.650599275988,4182.9181392125265,3999.115846057094,0,93.60035705566406,9214.673
2016-12-27 00:00:00+00:00,95.05,95.85,,42.934822,1.3992854,0.99,-4200.446558081609,12533.331061896723,4182.9181392125265,4149.966364602587,0,93.60035705566406,9327.556
2016-12-28 00:00:00+00:00,96.34,94.67,,48.17373,1.4278564,0.9024763544628198,-4201.276502156849,12379.03419896563,4182.9181392125265,3994.839557596254,0,93.75106811523438,9212.726
2016-12-29 00:00:00+00:00,94.7,95.31,,31.229963,1.4192854,0.99,-4202.10644623209,12462.720911877157,4182.9181392125265,4077.6963264325404,0,93.75106811523438,9275.007
2016-12-30 00:00:00+00:00,95.43,94.76,,26.598166,1.3378569,0.8649651223321186,-4202.936390307331,12390.803239416877,4182.9181392125265,4004.9487098970194,0,93.75106811523438,9221.484
2017-01-03 00:00:00+00:00,95.43,95.25,,25.326094,1.3228569,0.99,-4203.766334382572,12454.875356282533,4182.9181392125265,4068.190882687435,0,93.75106811523438,9269.168
2017-01-04 00:00:00+00:00,95.71,97.27,,31.194683,1.2735716,0.99,-4204.596278457812,12719.01004059281,4182.9181392125265,4331.495622922472,0,93.75106811523438,9465.742
2017-01-05 00:00:00+00:00,96.46,95.62,,51.162758,1.292857,0.99,-4205.426222533053,12503.257408840773,4182.9181392125265,4114.913047095193,0,95.3596420288086,9305.175
2017-01-06 00:00:00+00:00,95.77,95.59,,47.311848,1.2857143,0.99,-4206.256166608294,12499.333655921484,4182.9181392125265,4110.159350100663,0,95.3596420288086,9302.255
2017-01-09 00:00:00+00:00,95.05,96.35,,47.497536,1.2399995,0.99,8372.727474463789,0.0,0.0,8372.727474463789,-1,0.0,9376.214
2017-01-10 00:00:00+00:00,96.07,96.39,,51.99629,1.2949998,0.99,-4198.9228284435885,12552.814804293537,4186.3637372318935,4167.528238618055,1,94.48999786376953,9380.106
2017-01-11 00:00:00+00:00,96.25,96.63,,50.808746,1.2971426,0.99,-4199.75345616923,12584.068868138513,4186.3637372318935,4197.951674737389,0,94.48999786376953,9403.462
2017-01-12 00:00:00+00:00,96.45,96.87,,54.867252,1.3149992,0.99,-4200.584083894872,12615.324241481463,4186.3637372318935,4228.376420354698,0,94.68428039550781,9426.817
2017-01-13 00:00:00+00:00,96.83,96.32,,54.911594,1.3171425,0.5555555555555556,-4201.414711620513,12543.697462564698,4186.3637372318935,4155.919013712291,0,94.89750671386719,9373.294
2017-01-17 00:00:00+00:00,95.79,95.97,,56.693714,1.3078569,0.99,-4202.245339346155,12498.117705565066,4186.3637372318935,4109.508628987018,0,94.89750671386719,9339.234
2017-01-18 00:00:00+00:00,95.97,96.69,,56.464645,1.3407141,0.5490196078431373,-4203.075967071796,12591.882551852083,4186.3637372318935,4202.442847548393,0,94.89750671386719,9409.301
2017-01-19 00:00:00+00:00,97.84,97.5,,54.439766,1.3371423,0.5490196078431373,-4203.906594797438,12697.368700978237,4186.3637372318935,4307.098368948906,0,94.89750671386719,9488.125
2017-01-20 00:00:00+00:00,98.03,99.0,,65.566574,1.4157137,0.5555555555555556,-4204.737222523079,12892.713580018173,4186.3637372318935,4501.6126202632,0,95.4942855834961,9634.098
2017-01-23 00:00:00+00:00,98.74,100.24,,68.54273,1.5349993,0.5490196078431373,-4205.567850248721,13054.197407029631,4186.3637372318935,4662.265819549017,0,96.87642669677734,9754.767
2017-01-24 00:00:00+00:00,100.74,101.8,,75.75186,1.5757135,0.5490196078431373,9031.07084752626,0.0,0.0,9031.07084752626,-1,0.0,9906.576
2017-01-25 00:00:00+00:00,102.2,101.08,,77.967545,1.6407138,0.5490196078431373,9031.07084752626,0.0,0.0,9031.07084752626,0,0.0,9836.511
2017-01-26 00:00:00+00:00,101.64,101.85,,68.29971,1.5785713,0.5494047433171425,9031.07084752626,0.0,0.0,9031.07084752626,0,0.0,9911.442
2017-01-27 00:00:00+00:00,101.69,102.02,,82.68618,1.5335715,0.5490196078431373,-9.03107084752628,9026.55756874189,0.0,9017.526497894363,1,99.48213958740234,9927.985
2017-01-30 00:00:00+00:00,102.15,102.03,,83.24714,1.5371431,0.5490196078431373,-9.03107084752628,9027.442081443103,0.0,9018.411010595577,0,99.71964263916016,9928.958
2017-01-31 00:00:00+00:00,101.72,100.01,,81.83855,1.5385715,0.5294117647058825,-9.03107084752628,8848.716418496175,0.0,8839.685347648649,0,99.72428131103516,9732.384
2017-02-01 00:00:00+00:00,99.65,100.56,,66.605515,1.6642854,0.5490196078431373,8875.00158275374,0.0,0.0,8875.00158275374,-1,0.0,9785.906
2017-02-02 00:00:00+00:00,100.51,100.58,,67.52899,1.712143,0.9682119889480639,-8.875001582753612,8870.56629960394,0.0,8861.691298021186,1,98.06356811523438,9787.854
2017-02-03 00:00:00+00:00,101.11,100.94,,66.87898,1.702143,0.99,-8.875001582753612,8902.316353146269,0.0,8893.441351563515,0,98.06356811523438,9822.887
2017-02-06 00:00:00+00:00,100.32,99.92,,71.38891,1.6878575,0.75,-8.875001582753612,8812.357792504821,0.0,8803.482790922068,0,98.38678741455078,9723.626
2017-02-07 00:00:00+00:00,100.04,100.01,,67.21882,1.6692859,0.5555555555555556,-8.875001582753612,8820.295483177715,0.0,8811.420481594962,0,98.38678741455078,9732.384
2017-02-08 00:00:00+00:00,100.08,100.1,,65.313644,1.6592865,0.5555555555555556,-8.875001582753612,8828.232963460798,0.0,8819.357961878044,0,98.38678741455078,9741.143
2017-02-09 00:00:00+00:00,100.19,100.13,,62.84584,1.4964288,0.5555555555555556,-8.875001582753612,8830.878715613018,0.0,8822.003714030265,0,98.38678741455078,9744.062
2017-02-10 00:00:00+00:00,100.2,100.54,,56.531776,1.3800005,0.5294117647058825,-8.875001582753612,8867.03869030758,0.0,8858.163688724826,0,98.38678741455078,9783.961
2017-02-13 00:00:00+00:00,100.94,100.81,,51.918175,1.3314291,0.5490196078431373,-8.875001582753612,8890.850481319456,0.0,8881.975479736702,0,98.47000122070312,9810.235
2017-02-14 00:00:00+00:00,100.91,101.57,,42.41956,1.2171429,0.5555555555555556,-8.875001582753612,8957.877844535036,0.0,8949.002842952283,0,98.81285095214844,9884.194
2017-02-15 00:00:00+00:00,101.0,101.5,,53.729057,1.2085713,0.5555555555555556,-8.875001582753612,8951.704532846225,0.0,8942.829531263471,0,99.7442855834961,9877.383
2017-02-16 00:00:00+00:00,101.8,101.77,,47.018753,1.1742853,0.5490196078431373,-8.875001582753612,8975.516389944081,0.0,8966.641388361328,0,99.7442855834961,9903.657
2017-02-17 00:00:00+00:00,101.71,102.37,,47.906197,1.1814281,0.5555555555555556,-8.875001582753612,9028.43364559573,0.0,9019.558644012975,0,100.0085678100586,9962.046
2017-02-21 00:00:00+00:00,102.5,103.0,,52.59149,1.1757143,0.5490196078431373,-8.875001582753612,9083.995171241013,0.0,9075.12016965826,0,100.59786224365234,10023.354
2017-02-22 00:00:00+00:00,102.4,102.81,,78.91677,1.0357143,0.4678111587982833,-8.875001582753612,9067.237887639565,0.0,9058.362886056811,0,101.2364273071289,10004.862
2017-02-23 00:00:00+00:00,103.23,102.6,,73.38871,0.98285675,0.4678111587982833,-8.875001582753612,9048.717223950696,0.0,9039.842222367943,0,101.25642395019531,9984.427
2017-02-24 00:00:00+00:00,102.13,103.31,,70.199936,0.98285675,0.5490196078431373,-8.875001582753612,9111.335245301836,0.0,9102.460243719082,0,101.25642395019531,10053.5205
2017-02-27 00:00:00+00:00,103.08,102.45,,72.14946,1.033571,0.5490196078431373,-8.875001582753612,9035.488442608583,0.0,9026.61344102583,0,101.83570861816406,9969.83
2017-02-28 00:00:00+00:00,102.32,102.43,,74.37377,1.0121428,0.5490196078431373,-8.875001582753612,9033.724668174878,0.0,9024.849666592125,0,101.83570861816406,9967.885
2017-03-01 00:00:00+00:00,103.45,103.29,,73.63282,0.9942856,0.5555555555555556,-8.875001582753612,9109.572086733979,0.0,9100.697085151225,0,101.83570861816406,10051.574
2017-03-02 00:00:00+00:00,103.3,102.38,,77.07982,1.0435715,0.5490196078431373,-8.875001582753612,9029.315275941286,0.0,9020.440274358532,0,101.83570861816406,9963.019
2017-03-03 00:00:00+00:00,102.43,102.06,,66.61742,1.0657141,0.5490196078431373,-8.875001582753612,9001.093176174847,0.0,8992.218174592093,0,101.83570861816406,9931.879
2017-03-06 00:00:00+00:00,101.95,101.2,,61.37722,1.105714,0.8110182196772514,-8.875001582753612,8925.246114034013,0.0,8916.37111245126,0,101.83570861816406,9848.188
2017-03-07 00:00:00+00:00,101.14,100.78,,52.68225,1.133571,0.75,8865.99767512198,0.0,0.0,8865.99767512198,-1,0.0,9807.316
2017-03-08 00:00:00+00:00,100.64,106.83,,44.300137,1.0835713,0.99,-8.865997675122344,8861.566891676142,0.0,8852.70089400102,1,99.07964324951172,10396.067
2017-03-09 00:00:00+00:00,106.0,102.93,,70.642914,1.9685718,0.75,8516.388184218617,0.0,0.0,8516.388184218617,-1,0.0,10016.541
2017-03-10 00:00:00+00:00,103.94,102.09,,53.50666,2.283572,0.99,-8.516388184218158,8512.132118159538,0.0,8503.61572997532,1,99.97714233398438,9934.797
2017-03-13 00:00:00+00:00,102.26,102.68,,49.165653,2.3514285,0.99,-8.516388184218158,8561.325996939948,0.0,8552.80960875573,0,99.97714233398438,9992.213
2017-03-14 00:00:00+00:00,102.47,101.73,,49.04421,2.3771434,0.99,-8.516388184218158,8482.116507998337,0.0,8473.600119814118,0,99.97714233398438,9899.766
2017-03-15 00:00:00+00:00,102.89,104.04,,46.914303,2.3921437,0.99,-8.516388184218158,8674.720815478198,0.0,8666.20442729398,0,99.97714233398438,10124.561
2017-03-16 00:00:00+00:00,104.65,103.62,,53.673473,2.5092866,0.99,-8.516388184218158,8639.701805685947,0.0,8631.185417501729,0,100.4517822265625,10083.688
2017-03-17 00:00:00+00:00,104.39,104.49,,50.802708,2.5228581,0.99,-8.516388184218158,8712.240996678811,0.0,8703.724608494593,0,100.4517822265625,10168.351
2017-03-20 00:00:00+00:00,104.23,105.57,,55.279507,2.5571442,0.8460826492612021,-8.516388184218158,8802.290042167173,0.0,8793.773653982955,0,100.7057113647461,10273.45
2017-03-21 00:00:00+00:00,105.39,104.48,,57.70363,2.7400012,0.99,-8.516388184218158,8711.407318360414,0.0,8702.890930176196,0,101.73428344726562,10167.378
2017-03-22 00:00:00+00:00,104.4,104.25,,52.886955,2.770001,0.99,-8.516388184218158,8692.229695690698,0.0,8683.71330750648,0,101.73428344726562,10144.995
2017-03-23 00:00:00+00:00,103.93,104.62,,54.691425,2.8300014,0.99,-8.516388184218158,8723.080315332216,0.0,8714.563927147998,0,101.73428344726562,10181.003
2017-03-24 00:00:00+00:00,104.5,103.79,,56.406418,2.8635728,0.99,-8.516388184218158,8653.875780078492,0.0,8645.359391894273,0,101.73428344726562,10100.231
2017-03-27 00:00:00+00:00,102.76,103.82,,56.491238,2.8785732,0.99,-8.516388184218158,8656.377464358731,0.0,8647.861076174513,0,101.73428344726562,10103.15
2017-03-28 00:00:00+00:00,103.85,104.97,,57.77096,2.9664307,0.99,-8.516388184218158,8752.263527217816,0.0,8743.747139033598,0,101.73428344726562,10215.062
2017-03-29 00:00:00+00:00,104.89,105.77,,43.656208,2.1507165,0.9272519120650302,-8.516388184218158,8818.966007481355,0.0,8810.449619297136,0,101.73428344726562,10292.913
2017-03-30 00:00:00+00:00,105.45,105.23,,62.283722,1.8642873,0.7996984743523005,-8.516388184218158,8773.94186793372,0.0,8765.425479749501,0,102.5439224243164,10240.364
2017-03-31 00:00:00+00:00,104.94,105.08,,63.94321,1.7371445,0.99,-8.516388184218158,8761.435095667592,0.0,8752.918707483374,0,102.5439224243164,10225.767
2017-04-03 00:00:00+00:00,105.5,105.08,,61.090595,1.7685721,0.5555555555555556,-8.516388184218158,8761.435095667592,0.0,8752.918707483374,0,102.5439224243164,10225.767
2017-04-04 00:00:00+00:00,105.08,104.77,,66.970634,1.7835721,0.99,-8.516388184218158,8735.587184339802,0.0,8727.070796155584,0,102.5439224243164,10195.599
2017-04-05 00:00:00+00:00,105.0,105.0,,54.63784,1.6464293,0.7620853722019781,-8.516388184218158,8754.76492796387,0.0,8746.248539779652,0,102.5439224243164,10217.981
2017-04-06 00:00:00+00:00,105.18,105.27,,58.984356,1.6814287,0.99,-8.516388184218158,8777.276443521181,0.0,8768.760055336963,0,102.5439224243164,10244.255
2017-04-07 00:00:00+00:00,105.15,106.05,,55.508465,1.6278572,0.99,-8.516388184218158,8842.312310571293,0.0,8833.795922387075,0,102.74785614013672,10320.16
2017-04-10 00:00:00+00:00,105.89,105.79,,53.539845,1.4628569,0.5490196078431373,-8.516388184218158,8820.633455612835,0.0,8812.117067428617,0,103.60821533203125,10294.858
2017-04-11 00:00:00+00:00,105.49,106.06,,61.00836,1.4157143,0.5555555555555556,-8.516388184218158,8843.145050105177,0.0,8834.628661920959,0,103.60821533203125,10321.132
2017-04-12 00:00:00+00:00,105.5,105.06,,65.10848,1.3728567,0.5490196078431373,-8.516388184218158,8759.76639282998,0.0,8751.250004645763,0,103.9364242553711,10223.817
2017-04-13 00:00:00+00:00,105.0,104.42,,53.323223,1.3428568,0.5555555555555556,-8.516388184218158,8706.403879964533,0.0,8697.887491780315,0,103.9364242553711,10161.537
2017-04-17 00:00:00+00:00,104.82,105.39,,54.89889,1.3235708,0.99,-8.516388184218158,8787.281007891626,0.0,8778.764619707408,0,103.9364242553711,10255.932
2017-04-18 00:00:00+00:00,104.87,104.74,,60.651283,1.2757132,0.99,-8.516388184218158,8733.08465598845,0.0,8724.568267804232,0,103.9364242553711,10192.677
2017-04-19 00:00:00+00:00,104.97,105.0,,48.32603,1.2285701,0.99,-8.516388184218158,8754.763789746554,0.0,8746.247401562336,0,103.9364242553711,10217.979
2017-04-20 00:00:00+00:00,105.63,106.37,,43.91789,1.2092851,0.99,-8.516388184218158,8868.993278872204,0.0,8860.476890687985,0,103.9364242553711,10351.3
2017-04-21 00:00:00+00:00,106.66,105.94,,57.96087,1.3128569,0.75,-8.516388184218158,8833.140318395348,0.0,8824.62393021113,0,104.55607604980469,10309.455
2017-04-24 00:00:00+00:00,108.03,108.01,,55.77956,1.2871431,0.9503635926800945,-8.516388184218158,9005.734193720973,0.0,8997.217805536755,0,104.55607604980469,10510.8955
2017-04-25 00:00:00+00:00,108.18,110.82,,65.40481,1.3471429,0.4678111587982833,-8.516388184218158,9240.028420451257,0.0,9231.51203226704,0,106.07928466796875,10784.349
2017-04-26 00:00:00+00:00,110.89,110.48,,75.18734,1.5107138,0.4678111587982833,9189.345829370466,0.0,0.0,9189.345829370466,-1,0.0,10751.262
2017-04-27 00:00:00+00:00,110.58,111.29,,72.60727,1.4507141,0.4678111587982833,9189.345829370466,0.0,0.0,9189.345829370466,0,0.0,10830.085
2017-04-28 00:00:00+00:00,111.05,109.84,,73.77568,1.509285,0.4678111587982833,9189.345829370466,0.0,0.0,9189.345829370466,0,0.0,10688.9795
2017-05-01 00:00:00+00:00,109.67,109.46,,64.21603,1.5399998,0.4678111587982833,9189.345829370466,0.0,0.0,9189.345829370466,0,0.0,10652.001
2017-05-02 00:00:00+00:00,109.69,109.47,,63.64312,1.5178566,0.4678111587982833,9189.345829370466,0.0,0.0,9189.345829370466,0,0.0,10652.975
2017-05-03 00:00:00+00:00,109.32,109.2,,62.92647,1.7085713,0.5294117647058825,9189.345829370466,0.0,0.0,9189.345829370466,0,0.0,10626.7
2017-05-04 00:00:00+00:00,109.33,109.89,,66.61315,1.643571,0.4678111587982833,-9.189345829370723,9184.753452644145,0.0,9175.564106814774,1,106.63713836669922,10693.847
2017-05-05 00:00:00+00:00,110.0,110.56,,71.862495,1.6471426,0.5294117647058825,-9.189345829370723,9240.752518917772,0.0,9231.563173088402,0,107.42464447021484,10759.047
2017-05-08 00:00:00+00:00,109.75,108.43,,71.17115,1.6735709,0.5294117647058825,-9.189345829370723,9062.724500999326,0.0,9053.535155169955,0,108.08928680419922,10551.769
2017-05-09 00:00:00+00:00,108.47,107.85,,63.476997,1.7685705,0.5555555555555556,-9.189345829370723,9014.247084669156,0.0,9005.057738839785,0,108.08928680419922,10495.326
2017-05-10 00:00:00+00:00,107.94,107.85,,60.1713,1.772856,0.5555555555555556,8991.53636821278,0.0,0.0,8991.53636821278,-1,0.0,10495.326
2017-05-11 00:00:00+00:00,107.31,107.46,,55.854412,1.6792848,0.5543684487935419,-8.99153636821211,8987.042846789387,0.0,8978.051310421175,1,105.19071197509766,10457.374
2017-05-12 00:00:00+00:00,107.29,107.12,,56.031734,1.7049991,0.5555555555555556,-8.99153636821211,8958.60843857808,0.0,8949.616902209867,0,105.19071197509766,10424.287
2017-05-15 00:00:00+00:00,107.16,107.98,,45.906166,1.5885707,0.4678111587982833,-8.99153636821211,9030.53162327248,0.0,9021.540086904268,0,105.19071197509766,10507.977
2017-05-16 00:00:00+00:00,107.92,107.41,,34.080734,1.4635707,0.5490196078431373,-8.99153636821211,8982.861558575698,0.0,8973.870022207486,0,105.5971450805664,10452.508
2017-05-17 00:00:00+00:00,107.41,105.48,,33.22405,1.4307137,0.5294117647058825,-8.99153636821211,8821.45269245802,0.0,8812.461156089808,0,105.5971450805664,10264.691
2017-05-18 00:00:00+00:00,105.62,105.39,,21.713753,1.4535713,0.8636055740199415,-8.99153636821211,8813.925346040996,0.0,8804.933809672784,0,105.5971450805664,10255.933
2017-05-19 00:00:00+00:00,105.11,106.73,,25.028086,1.4342853,0.9792581588115165,8903.611622461789,0.0,0.0,8903.611622461789,-1,0.0,10386.335
2017-05-22 00:00:00+00:00,106.95,106.42,,36.17025,1.518571,0.5490196078431373,-4465.161228664589,13348.743062161604,4451.805811230895,4431.77602226612,1,104.57857513427734,10356.166
2017-05-23 00:00:00+00:00,106.48,106.7,,35.00492,1.3128564,0.8240044047571378,-4466.044523468404,13383.864515938556,4451.805811230895,4466.014181239256,0,104.57857513427734,10383.414
2017-05-24 00:00:00+00:00,106.8,106.94,,37.72103,1.3378569,0.7570354382733352,-4466.927818272219,13413.969646557514,4451.805811230895,4495.2360170544,0,104.730712890625,10406.77
2017-05-25 00:00:00+00:00,107.17,106.91,,34.840733,1.3499995,0.5294117647058825,-4467.811113076034,13410.207035337828,4451.805811230895,4490.590111030897,0,104.93321990966797,10403.85
2017-05-26 00:00:00+00:00,106.72,107.24,,29.923052,1.3092859,0.5294117647058825,-4468.69440787985,13451.600135452412,4451.805811230895,4531.099916341667,0,104.93321990966797,10435.964
2017-05-30 00:00:00+00:00,107.0,106.48,,41.838127,1.2228574,0.5490196078431373,-4469.577702683665,13356.270352912506,4451.805811230895,4434.886838997945,0,105.27606964111328,10362.005
2017-05-31 00:00:00+00:00,106.67,106.36,,40.83002,1.235,0.5490196078431373,-4470.46099748748,13341.21777447322,4451.805811230895,4418.950965754844,0,105.27606964111328,10350.327
2017-06-01 00:00:00+00:00,106.49,109.16,,40.18447,1.2378567,0.5555555555555556,-4471.3442922912955,13692.43470682285,4451.805811230895,4769.284603300659,0,105.27606964111328,10622.807
2017-06-02 00:00:00+00:00,109.14,110.42,,58.500015,1.4185709,0.5555555555555556,-4472.227587095111,13850.482070027512,4451.805811230895,4926.448671701506,0,107.30321502685547,10745.422
2017-06-05 00:00:00+00:00,110.0,108.36,,65.10986,1.5121422,0.5490196078431373,-4473.110881898926,13592.08726328542,4451.805811230895,4667.1705701556,0,108.29214477539062,10544.954
2017-06-06 00:00:00+00:00,107.86,108.38,,51.567646,1.5699997,0.99,9100.209422490461,0.0,0.0,9100.209422490461,-1,0.0,10546.9
2017-06-07 00:00:00+00:00,108.57,107.85,,54.19185,1.576428,0.9359371321026708,-4563.755025378967,13643.49238754192,4550.104711245231,4529.632650917723,1,106.02499389648438,10495.324
2017-06-08 00:00:00+00:00,107.85,107.92,,61.651894,1.5199994,0.5490196078431373,-4564.6578239327855,13652.34830452483,4550.104711245231,4537.585769346815,0,106.02499389648438,10502.137
2017-06-09 00:00:00+00:00,108.07,109.93,,62.463055,1.5307138,0.9389624794778361,-4565.560622486604,13906.62195064753,4550.104711245231,4790.956616915695,0,106.02499389648438,10697.738
2017-06-12 00:00:00+00:00,110.0,110.14,,64.78743,1.5299999,0.5490196078431373,-4566.463421040423,13933.188171975207,4550.104711245231,4816.620039689553,0,107.63392639160156,10718.174
2017-06-13 00:00:00+00:00,110.06,111.57,,67.35078,1.5264282,0.4678111587982833,-4567.366219594242,14114.08890346419,4550.104711245231,4996.617972624717,0,107.84500122070312,10857.333
2017-06-14 00:00:00+00:00,111.68,111.5,,70.51393,1.5799997,0.5490196078431373,-4568.26901814806,14105.233745385647,4550.104711245231,4986.860015992357,0,109.28035736083984,10850.521
2017-06-15 00:00:00+00:00,110.47,111.32,,69.4872,1.538571,0.5490196078431373,-4569.171816701879,14082.463212374687,4550.104711245231,4963.186684427577,0,109.28035736083984,10833.005
2017-06-16 00:00:00+00:00,111.2,111.16,,68.607605,1.5535709,0.5490196078431373,-4570.074615255698,14062.22323719406,4550.104711245231,4942.043910693132,0,109.28035736083984,10817.435
2017-06-19 00:00:00+00:00,111.51,111.11,,66.78087,1.5328571,0.4678111587982833,-4570.977413809516,14055.897539368443,4550.104711245231,4934.815414313696,0,109.28035736083984,10812.568
2017-06-20 00:00:00+00:00,110.88,110.78,,71.103004,1.4785712,0.5294117647058825,-4571.880212363335,14014.150963626127,4550.104711245231,4892.166040017562,0,109.28035736083984,10780.455
2017-06-21 00:00:00+00:00,111.0,110.68,,69.76745,1.4535713,0.4678111587982833,-4572.783010917154,14001.50105185333,4550.104711245231,4878.613329690947,0,109.28035736083984,10770.724
2017-06-22 00:00:00+00:00,110.77,110.57,,58.962257,1.2042853,0.5294117647058825,-4573.685809470972,13987.58569017839,4550.104711245231,4863.795169462186,0,109.28035736083984,10760.019
2017-06-23 00:00:00+00:00,110.5,110.68,,51.023205,1.1021423,0.5294117647058825,-4574.588608024791,14001.50056170231,4550.104711245231,4876.807242432289,0,109.28035736083984,10770.723
2017-06-26 00:00:00+00:00,110.55,110.82,,71.56135,1.0014278,0.5294117647058825,-4575.49140657861,14019.211476607408,4550.104711245231,4893.615358783567,0,109.28035736083984,10784.347
2017-06-27 00:00:00+00:00,110.49,110.49,,72.18184,0.98928505,0.4678111587982833,-4576.394205132428,13977.464395007499,4550.104711245231,4850.96547862984,0,109.31785583496094,10752.233
2017-06-28 00:00:00+00:00,111.0,111.07,101.5347,74.90564,0.9542852,0.4678111587982833,-4577.297003686247,14050.837431944516,4550.104711245231,4923.435717013037,0,109.31785583496094,10808.675
2017-06-29 00:00:00+00:00,111.06,109.65,101.57625,77.10842,0.91499984,0.4678111587982833,-4578.199802240066,13871.201417098391,4550.104711245231,4742.896903613095,0,109.31785583496094,10670.489
2017-06-30 00:00:00+00:00,110.18,109.96,101.6187,47.31802,0.9164287,0.4678111587982833,-4579.102600793884,13910.41762708316,4550.104711245231,4781.210315044043,0,109.31785583496094,10700.656
2017-07-03 00:00:00+00:00,110.61,110.61,101.6651,48.30827,0.90928596,0.4678111587982833,-4580.005399347703,13992.645319553016,4550.104711245231,4862.535208960082,0,109.31785583496094,10763.91
2017-07-05 00:00:00+00:00,111.22,110.68,101.71195,39.427326,0.8671428,0.4678111587982833,-4580.908197901522,14001.501014562427,4550.104711245231,4870.488105415674,0,109.31785583496094,10770.723
2017-07-06 00:00:00+00:00,110.44,110.05,101.7643,40.96917,0.91714257,0.4678111587982833,-4581.8109964553405,13921.803564020713,4550.104711245231,4789.8878563201415,0,109.31785583496094,10709.414
2017-07-07 00:00:00+00:00,110.35,111.0,101.80915,37.27458,0.8964282,0.4678111587982833,-4582.713795009159,14041.98244033547,4550.104711245231,4909.163934081082,0,109.31785583496094,10801.862
2017-07-10 00:00:00+00:00,110.73,110.98,101.85785,48.615887,0.91642815,0.4678111587982833,-4583.616593562978,14039.453124927319,4550.104711245231,4905.73182011911,0,109.31785583496094,10799.917
2017-07-11 00:00:00+00:00,111.1,110.97,101.90045,48.869587,0.92142814,0.4678111587982833,-4584.519392116797,14038.187858203395,4550.104711245231,4903.563754841367,0,109.31785583496094,10798.944
2017-07-12 00:00:00+00:00,111.67,111.84,101.9396,51.749565,0.92857087,0.4678111587982833,-4585.422190670615,14148.246101797875,4550.104711245231,5012.719199882029,0,109.31785583496094,10883.606
2017-07-13 00:00:00+00:00,111.79,112.4,101.98245,59.354824,0.97071403,0.4678111587982833,-4586.324989224434,14219.08846098474,4550.104711245231,5082.658760515076,0,109.31785583496094,10938.102
2017-07-14 00:00:00+00:00,112.64,112.8,102.03375,63.759426,0.99714226,0.4678111587982833,9661.05838817055,0.0,0.0,9661.05838817055,-1,0.0,10977.028
2017-07-17 00:00:00+00:00,112.8,112.96,102.0855,65.2738,1.0057138,0.4678111587982833,9661.05838817055,0.0,0.0,9661.05838817055,0,0.0,10992.598
2017-07-18 00:00:00+00:00,112.84,112.95,102.13245,65.37358,1.0199999,0.41189733711495874,9661.05838817055,0.0,0.0,9661.05838817055,0,0.0,10991.623
2017-07-19 00:00:00+00:00,113.13,113.6,102.1869,68.52411,1.0299994,0.4678111587982833,9661.05838817055,0.0,0.0,9661.05838817055,0,0.0,11054.878
2017-07-20 00:00:00+00:00,109.59,106.72,102.2381,68.85247,1.0421416,0.4678111587982833,9661.05838817055,0.0,0.0,9661.05838817055,0,0.0,10385.357
2017-07-21 00:00:00+00:00,106.25,106.37,102.2545,37.962193,1.4521408,0.5294117647058825,9661.05838817055,0.0,0.0,9661.05838817055,0,0.0,10351.298
2017-07-24 00:00:00+00:00,105.19,105.39,102.2761,35.29894,1.4714268,0.4678111587982833,-9.661058388170204,9656.230273034033,0.0,9646.569214645862,1,102.01358032226562,10255.93
2017-07-25 00:00:00+00:00,106.2,107.11,102.29515,29.186586,1.5099983,0.5294117647058825,-9.661058388170204,9813.823309391164,0.0,9804.162251002994,0,102.01358032226562,10423.31
2017-07-26 00:00:00+00:00,107.13,106.75,102.31975,37.420715,1.5635698,0.5294117647058825,-9.661058388170204,9780.838594728537,0.0,9771.177536340367,0,102.58000183105469,10388.276
2017-07-27 00:00:00+00:00,106.83,106.15,102.38485,38.146538,1.5457126,0.4678111587982833,-9.661058388170204,9725.864425128186,0.0,9716.203366740016,0,102.58000183105469,10329.888
2017-07-28 00:00:00+00:00,106.15,106.03,102.44635,32.129704,1.5828558,0.4678111587982833,-9.661058388170204,9714.86912825942,0.0,9705.20806987125,0,102.58000183105469,10318.21
2017-07-31 00:00:00+00:00,106.32,105.25,102.515,31.894651,1.6128561,0.4678111587982833,-9.661058388170204,9643.402613921775,0.0,9633.741555533605,0,102.58000183105469,10242.305
2017-08-01 00:00:00+00:00,105.28,105.11,102.58155,30.193905,1.6649992,0.4678111587982833,-9.661058388170204,9630.575564861176,0.0,9620.914506473006,0,102.58000183105469,10228.682
2017-08-02 00:00:00+00:00,104.92,106.21,102.6465,25.455898,1.6492854,0.4678111587982833,-9.661058388170204,9731.362083704778,0.0,9721.701025316608,0,102.58000183105469,10335.728
2017-08-03 00:00:00+00:00,106.46,104.67,102.71455,28.280693,1.7335718,0.4678111587982833,-9.661058388170204,9590.261180279069,0.0,9580.600121890899,0,102.58000183105469,10185.864
2017-08-04 00:00:00+00:00,104.94,105.01,102.7746,23.586727,1.8607146,0.4678111587982833,-9.661058388170204,9621.413551077827,0.0,9611.752492689657,0,102.58000183105469,10218.95
2017-08-07 00:00:00+00:00,105.2,105.14,102.8356,24.470158,1.8635718,0.4678111587982833,-9.661058388170204,9633.32475013826,0.0,9623.66369175009,0,102.58000183105469,10231.601
2017-08-08 00:00:00+00:00,104.26,103.4,102.8985,25.111547,1.8700011,0.5294117647058825,-9.661058388170204,9473.899498444212,0.0,9464.238440056042,0,102.58000183105469,10062.275
2017-08-09 00:00:00+00:00,103.04,103.37,102.9522,19.606682,1.939287,0.5490196078431373,-9.661058388170204,9471.151159932095,0.0,9461.490101543925,0,102.58000183105469,10059.355
2017-08-10 00:00:00+00:00,102.8,101.33,103.00715,33.13193,1.457144,0.4678111587982833,-9.661058388170204,9284.238758279756,0.0,9274.577699891586,0,102.58000183105469,9860.835
2017-08-11 00:00:00+00:00,101.56,100.73,103.0476,28.313253,1.5285727,0.4678111587982833,9205.759554317268,0.0,0.0,9205.759554317268,-1,0.0,9802.446
2017-08-14 00:00:00+00:00,101.71,102.56,103.09515,29.270475,1.4878584,0.5294117647058825,9205.759554317268,0.0,0.0,9205.759554317268,0,0.0,9980.531
2017-08-15 00:00:00+00:00,102.6,102.94,103.14535,29.955917,1.4835728,0.4678111587982833,-9.20575955431741,9201.158974829854,0.0,9191.953215275536,1,100.32820892333984,10017.511
2017-08-16 00:00:00+00:00,103.17,103.74,103.1933,33.245384,1.5085727,0.4678111587982833,-9.20575955431741,9272.665708233906,0.0,9263.459948679589,0,100.71464538574219,10095.361
2017-08-17 00:00:00+00:00,103.56,102.68,103.24765,39.58511,1.4685724,0.4678111587982833,-9.20575955431741,9177.91904321121,0.0,9168.713283656893,0,100.71464538574219,9992.208
2017-08-18 00:00:00+00:00,102.43,102.08,103.2954,36.610703,1.4835722,0.4678111587982833,-9.20575955431741,9124.28878230736,0.0,9115.083022753042,0,100.71464538574219,9933.819
2017-08-21 00:00:00+00:00,102.1,102.39,103.3421,37.14517,1.4435724,0.5490196078431373,-9.20575955431741,9151.997939384348,0.0,9142.79217983003,0,100.71464538574219,9963.987
2017-08-22 00:00:00+00:00,102.66,104.54,103.39215,39.119984,1.4307147,0.5294117647058825,-9.20575955431741,9344.172693173397,0.0,9334.96693361908,0,100.71464538574219,10173.212
2017-08-23 00:00:00+00:00,104.02,103.63,103.4561,43.83764,1.452143,0.4678111587982833,-9.20575955431741,9262.833154323262,0.0,9253.627394768944,0,100.71464538574219,10084.656
2017-08-24 00:00:00+00:00,103.91,103.71,103.5102,45.975227,1.3342863,0.4678111587982833,-9.20575955431741,9269.984055582136,0.0,9260.778296027818,0,100.71464538574219,10092.442
2017-08-25 00:00:00+00:00,103.98,103.72,103.557,44.865704,1.3335718,0.4678111587982833,-9.20575955431741,9270.878055766787,0.0,9261.67229621247,0,100.71464538574219,10093.415
2017-08-28 00:00:00+00:00,103.88,104.15,103.6019,44.338123,1.326428,0.5294117647058825,-9.20575955431741,9309.312719318285,0.0,9300.106959763967,0,100.71464538574219,10135.26
2017-08-29 00:00:00+00:00,103.45,103.86,103.6462,53.33927,1.2435712,0.4678111587982833,-9.20575955431741,9283.391580573754,0.0,9274.185821019437,0,100.71464538574219,10107.039
2017-08-30 00:00:00+00:00,103.62,103.81,103.68115,52.13228,1.2507144,0.4678111587982833,-9.20575955431741,9278.922307853161,0.0,9269.716548298844,0,100.71464538574219,10102.173
2017-08-31 00:00:00+00:00,104.22,104.32,103.72135,63.05261,1.1571432,0.4678111587982833,-9.20575955431741,9324.508291385977,0.0,9315.30253183166,0,100.71464538574219,10151.804
2017-09-01 00:00:00+00:00,104.8,104.59,103.7627,69.075424,1.1250006,0.4678111587982833,-9.20575955431741,9348.641544425609,0.0,9339.435784871292,0,100.84857177734375,10178.078
2017-09-05 00:00:00+00:00,104.46,103.44,103.8045,62.92992,1.0357149,0.4678111587982833,-9.20575955431741,9245.850717526784,0.0,9236.644957972467,0,101.21499633789062,10066.167
2017-09-06 00:00:00+00:00,103.92,104.2,103.8399,52.900234,1.0657147,0.4678111587982833,-9.20575955431741,9313.782073631794,0.0,9304.576314077476,0,101.88642883300781,10140.126
2017-09-07 00:00:00+00:00,104.37,104.01,103.87785,52.68065,1.0942862,0.4678111587982833,-9.20575955431741,9296.799642970207,0.0,9287.59388341589,0,101.88642883300781,10121.637
2017-09-08 00:00:00+00:00,103.63,103.59,103.92195,58.625183,1.0921434,0.4678111587982833,-9.20575955431741,9259.257724274543,0.0,9250.051964720225,0,101.88642883300781,10080.763
2017-09-11 00:00:00+00:00,104.48,105.9,103.95895,60.026527,1.1992863,0.4678111587982833,-9.20575955431741,9465.73480228537,0.0,9456.529042731052,0,101.9517822265625,10305.56
2017-09-12 00:00:00+00:00,106.08,106.69,104.00535,68.41553,1.3214296,0.4678111587982833,-9.20575955431741,9536.34803781353,0.0,9527.142278259213,0,102.30213928222656,10382.4375
2017-09-13 00:00:00+00:00,106.42,105.06,104.05085,63.157894,1.2371439,0.4678111587982833,9367.360149068756,0.0,0.0,9367.360149068756,-1,0.0,10223.815
2017-09-14 00:00:00+00:00,105.25,106.48,104.0855,58.04274,1.3078581,0.4678111587982833,9367.360149068756,0.0,0.0,9367.360149068756,0,0.0,10362.003
2017-09-15 00:00:00+00:00,106.25,106.3,104.13115,63.53862,1.3828583,0.4678111587982833,9367.360149068756,0.0,0.0,9367.360149068756,0,0.0,10344.486
2017-09-18 00:00:00+00:00,106.2,106.8,104.17265,62.403843,1.3657161,0.4678111587982833,9367.360149068756,0.0,0.0,9367.360149068756,0,0.0,10393.143
2017-09-19 00:00:00+00:00,107.0,108.34,104.227,62.6552,1.3778589,0.4678111587982833,9367.360149068756,0.0,0.0,9367.360149068756,0,0.0,10543.006
2017-09-20 00:00:00+00:00,108.52,108.81,104.2925,69.11261,1.4128587,0.4678111587982833,9367.360149068756,0.0,0.0,9367.360149068756,0,0.0,10588.744
2017-09-21 00:00:00+00:00,108.66,108.99,104.36365,70.59308,1.4307153,0.4678111587982833,9367.360149068756,0.0,0.0,9367.360149068756,0,0.0,10606.261
2017-09-22 00:00:00+00:00,108.96,108.76,104.42865,69.77138,1.4721434,0.4678111587982833,9367.360149068756,0.0,0.0,9367.360149068756,0,0.0,10583.879
2017-09-25 00:00:00+00:00,108.23,109.16,104.49135,67.71456,1.4642862,0.4678111587982833,9367.360149068756,0.0,0.0,9367.360149068756,0,0.0,10622.804
2017-09-26 00:00:00+00:00,109.39,108.51,104.54625,75.95281,1.520001,0.4678111587982833,9367.360149068756,0.0,0.0,9367.360149068756,0,0.0,10559.551
2017-09-27 00:00:00+00:00,108.64,107.99,104.59175,69.752525,1.5250009,0.4678111587982833,9367.360149068756,0.0,0.0,9367.360149068756,0,0.0,10508.947
2017-09-28 00:00:00+00:00,107.92,108.85,104.6352,67.704575,1.5142866,0.4678111587982833,9367.360149068756,0.0,0.0,9367.360149068756,0,0.0,10592.637
2017-09-29 00:00:00+00:00,108.74,108.66,104.6862,72.517105,1.4307153,0.4678111587982833,9367.360149068756,0.0,0.0,9367.360149068756,0,0.0,10574.147
2017-10-02 00:00:00+00:00,108.66,111.0,104.74425,64.43515,1.3321435,0.4678111587982833,9367.360149068756,0.0,0.0,9367.360149068756,0,0.0,10801.862
2017-10-03 00:00:00+00:00,111.6,111.99,104.8184,69.39693,1.4414297,0.4678111587982833,9367.360149068756,0.0,0.0,9367.360149068756,0,0.0,10898.203
2017-10-04 00:00:00+00:00,112.09,112.26,104.89785,83.094574,1.4078581,0.4678111587982833,9367.360149068756,0.0,0.0,9367.360149068756,0,0.0,10924.479
2017-10-05 00:00:00+00:00,112.47,113.03,104.97955,81.008606,1.3285719,0.01,9367.360149068756,0.0,0.0,9367.360149068756,0,0.0,10999.41
2017-10-06 00:00:00+00:00,112.88,113.28,105.0636,83.95562,1.3557146,0.01,9367.360149068756,0.0,0.0,9367.360149068756,0,0.0,11023.738
2017-10-09 00:00:00+00:00,113.07,112.64,105.1518,83.54039,1.3928577,0.10985774940885563,9367.360149068756,0.0,0.0,9367.360149068756,0,0.0,10961.457
2017-10-10 00:00:00+00:00,112.64,112.38,105.23565,74.54341,1.3871433,0.01,9367.360149068756,0.0,0.0,9367.360149068756,0,0.0,10936.155
2017-10-11 00:00:00+00:00,112.38,112.41,105.32255,70.877205,1.3685716,0.4678111587982833,9367.360149068756,0.0,0.0,9367.360149068756,0,0.0,10939.076
2017-10-12 00:00:00+00:00,112.25,113.4,105.41115,70.35717,1.3442857,0.4678111587982833,9367.360149068756,0.0,0.0,9367.360149068756,0,0.0,11035.417
2017-10-13 00:00:00+00:00,113.88,113.5,105.4989,75.3275,1.4114287,0.0200393549922887,9367.360149068756,0.0,0.0,9367.360149068756,0,0.0,11045.148
2017-10-16 00:00:00+00:00,113.77,113.17,105.59305,74.49208,1.3071431,0.05061865030855294,9367.360149068756,0.0,0.0,9367.360149068756,0,0.0,11013.034
2017-10-17 00:00:00+00:00,113.12,112.96,105.68235,77.28335,1.2842859,0.25535520755156843,9367.360149068756,0.0,0.0,9367.360149068756,0,0.0,10992.599
2017-10-18 00:00:00+00:00,113.15,112.88,105.77335,80.194435,1.2607144,0.4678111587982833,9367.360149068756,0.0,0.0,9367.360149068756,0,0.0,10984.8125
2017-10-19 00:00:00+00:00,111.0,114.31,105.8615,77.04698,1.26,0.4678111587982833,9367.360149068756,0.0,0.0,9367.360149068756,0,0.0,11123.973
2017-10-20 00:00:00+00:00,114.95,117.76,105.9467,82.50858,1.5542859,0.4678111587982833,9367.360149068756,0.0,0.0,9367.360149068756,0,0.0,11459.708
2017-10-23 00:00:00+00:00,117.68,116.89,106.0574,84.48977,1.6085718,0.4678111587982833,9367.360149068756,0.0,0.0,9367.360149068756,0,0.0,11375.045
2017-10-24 00:00:00+00:00,117.65,117.44,106.1639,75.30988,1.5878574,0.4678111587982833,9367.360149068756,0.0,0.0,9367.360149068756,0,0.0,11428.567
2017-10-25 00:00:00+00:00,117.26,117.72,106.26935,76.00398,1.6535721,0.4678111587982833,9367.360149068756,0.0,0.0,9367.360149068756,0,0.0,11455.814
2017-10-26 00:00:00+00:00,118.59,118.67,106.376,74.762375,1.6678575,0.4678111587982833,9367.360149068756,0.0,0.0,9367.360149068756,0,0.0,11548.263
2017-10-27 00:00:00+00:00,118.5,117.93,106.4862,76.49947,1.6585715,0.4678111587982833,9367.360149068756,0.0,0.0,9367.360149068756,0,0.0,11476.251
2017-10-30 00:00:00+00:00,117.55,116.16,106.5915,75.7546,1.7342856,0.01,9367.360149068756,0.0,0.0,9367.360149068756,0,0.0,11304.006
2017-10-31 00:00:00+00:00,116.57,116.24,106.6907,66.04416,1.8192858,0.4678111587982833,9367.360149068756,0.0,0.0,9367.360149068756,0,0.0,11311.79
2017-11-01 00:00:00+00:00,116.34,115.92,106.79205,66.187645,1.8307146,0.4678111587982833,9367.360149068756,0.0,0.0,9367.360149068756,0,0.0,11280.649
2017-11-02 00:00:00+00:00,116.1,116.16,106.8882,61.29031,1.8007147,0.4678111587982833,9367.360149068756,0.0,0.0,9367.360149068756,0,0.0,11304.006
2017-11-03 00:00:00+00:00,116.18,116.53,106.9815,61.769924,1.8000003,0.4678111587982833,9367.360149068756,0.0,0.0,9367.360149068756,0,0.0,11340.012
2017-11-06 00:00:00+00:00,116.56,116.34,107.06915,64.81482,1.7771432,0.4678111587982833,9367.360149068756,0.0,0.0,9367.360149068756,0,0.0,11321.522
2017-11-07 00:00:00+00:00,116.55,116.34,107.14965,64.92931,1.754286,0.01,9367.360149068756,0.0,0.0,9367.360149068756,0,0.0,11321.522
2017-11-08 00:00:00+00:00,116.22,116.12,107.22235,65.39146,1.7321428,0.01,9367.360149068756,0.0,0.0,9367.360149068756,0,0.0,11300.113
2017-11-09 00:00:00+00:00,115.05,115.13,107.29755,59.022964,1.4214281,0.4678111587982833,9367.360149068756,0.0,0.0,9367.360149068756,0,0.0,11203.771
2017-11-10 00:00:00+00:00,114.68,114.67,107.36395,32.628746,1.283571,0.4678111587982833,9367.360149068756,0.0,0.0,9367.360149068756,0,0.0,11159.008
2017-11-13 00:00:00+00:00,114.26,114.55,107.4272,34.497173,1.2528566,0.4678111587982833,9367.360149068756,0.0,0.0,9367.360149068756,0,0.0,11147.331
2017-11-14 00:00:00+00:00,113.49,114.35,107.4898,28.528917,1.1742848,0.4678111587982833,9367.360149068756,0.0,0.0,9367.360149068756,0,0.0,11127.868
2017-11-15 00:00:00+00:00,114.09,113.39,107.5615,24.661581,1.1707137,0.4678111587982833,9367.360149068756,0.0,0.0,9367.360149068756,0,0.0,11034.447
2017-11-16 00:00:00+00:00,113.79,114.01,107.62565,10.3603,1.1528566,0.5555555555555556,9367.360149068756,0.0,0.0,9367.360149068756,0,0.0,11094.782
2017-11-17 00:00:00+00:00,114.0,113.83,107.6928,20.030563,1.0257143,0.4678111587982833,-9.36736014906819,9362.678809663925,0.0,9353.311449514857,1,110.55142974853516,11077.266
2017-11-20 00:00:00+00:00,114.08,114.88,107.75725,26.464613,0.94500023,0.4678111587982833,-9.36736014906819,9449.042926763328,0.0,9439.67556661426,0,110.75286102294922,11179.446
2017-11-21 00:00:00+00:00,115.61,115.34,107.83205,38.513504,1.0178577,0.4678111587982833,-9.36736014906819,9486.878036338963,0.0,9477.510676189895,0,112.04499816894531,11224.21
2017-11-22 00:00:00+00:00,115.63,115.27,107.9087,45.214504,0.9992861,0.4678111587982833,-9.36736014906819,9481.120502301968,0.0,9471.7531421529,0,112.28642272949219,11217.398
2017-11-24 00:00:00+00:00,115.81,116.1,107.98455,42.44475,1.0421431,0.4678111587982833,-9.36736014906819,9549.389116186423,0.0,9540.021756037355,0,112.28642272949219,11298.169
2017-11-27 00:00:00+00:00,115.95,115.85,108.0644,46.61417,1.0628575,0.4678111587982833,-9.36736014906819,9528.826063257948,0.0,9519.45870310888,0,112.97357177734375,11273.841
2017-11-28 00:00:00+00:00,116.26,117.34,108.14095,46.17786,1.077143,0.4678111587982833,-9.36736014906819,9651.380966760997,0.0,9642.013606611928,0,112.97357177734375,11418.839
2017-11-29 00:00:00+00:00,117.48,117.01,108.2236,56.32912,1.124286,0.4678111587982833,9600.434994620822,0.0,0.0,9600.434994620822,-1,0.0,11386.726
2017-11-30 00:00:00+00:00,117.1,116.85,108.3008,55.555557,1.1450005,0.4678111587982833,9600.434994620822,0.0,0.0,9600.434994620822,0,0.0,11371.154
2017-12-01 00:00:00+00:00,117.31,115.93,108.37755,61.977737,1.1692859,0.4678111587982833,9600.434994620822,0.0,0.0,9600.434994620822,0,0.0,11281.626
2017-12-04 00:00:00+00:00,117.9,117.56,108.44835,58.246098,1.3078569,0.4678111587982833,9600.434994620822,0.0,0.0,9600.434994620822,0,0.0,11440.247
2017-12-05 00:00:00+00:00,117.37,116.75,108.5243,66.44807,1.4692857,0.4678111587982833,9600.434994620822,0.0,0.0,9600.434994620822,0,0.0,11361.424
2017-12-06 00:00:00+00:00,116.82,116.19,108.59305,62.295105,1.4578569,0.4678111587982833,9600.434994620822,0.0,0.0,9600.434994620822,0,0.0,11306.929
2017-12-07 00:00:00+00:00,116.03,116.11,108.65995,64.957306,1.4614285,0.4678111587982833,9600.434994620822,0.0,0.0,9600.434994620822,0,0.0,11299.143
2017-12-08 00:00:00+00:00,116.24,115.92,108.7275,61.904774,1.4607141,0.4678111587982833,9600.434994620822,0.0,0.0,9600.434994620822,0,0.0,11280.653
2017-12-11 00:00:00+00:00,116.06,115.68,108.79055,61.834652,1.4478569,0.4678111587982833,9600.434994620822,0.0,0.0,9600.434994620822,0,0.0,11257.298
2017-12-12 00:00:00+00:00,115.74,115.89,108.8567,54.987556,1.4228565,0.4678111587982833,9600.434994620822,0.0,0.0,9600.434994620822,0,0.0,11277.734
2017-12-13 00:00:00+00:00,116.08,116.25,108.924,53.53928,1.4185709,0.4678111587982833,9600.434994620822,0.0,0.0,9600.434994620822,0,0.0,11312.768
2017-12-14 00:00:00+00:00,116.31,113.82,108.9888,56.079433,1.4028566,0.4678111587982833,9600.434994620822,0.0,0.0,9600.434994620822,0,0.0,11076.294
2017-12-15 00:00:00+00:00,114.7,115.09,109.046,38.19875,1.5528564,0.4678111587982833,9600.434994620822,0.0,0.0,9600.434994620822,0,0.0,11199.883
2017-12-18 00:00:00+00:00,115.62,116.13,109.11115,46.441933,1.624285,0.4678111587982833,9600.434994620822,0.0,0.0,9600.434994620822,0,0.0,11301.09
2017-12-19 00:00:00+00:00,116.68,116.31,109.1858,44.086018,1.6149995,0.4678111587982833,9600.434994620822,0.0,0.0,9600.434994620822,0,0.0,11318.606
2017-12-20 00:00:00+00:00,116.38,116.16,109.26345,46.527752,1.595714,0.4678111587982833,9600.434994620822,0.0,0.0,9600.434994620822,0,0.0,11304.01
2017-12-21 00:00:00+00:00,116.33,116.18,109.3101,46.574,1.5371426,0.4678111587982833,9600.434994620822,0.0,0.0,9600.434994620822,0,0.0,11305.956
2017-12-22 00:00:00+00:00,116.42,116.19,109.37635,51.363144,1.4057143,0.4678111587982833,9600.434994620822,0.0,0.0,9600.434994620822,0,0.0,11306.929
2017-12-26 00:00:00+00:00,116.4,116.28,109.44685,40.92717,1.2371428,0.4678111587982833,9600.434994620822,0.0,0.0,9600.434994620822,0,0.0,11315.686
2017-12-27 00:00:00+00:00,116.46,116.49,109.51485,46.55928,1.1935713,0.4678111587982833,9600.434994620822,0.0,0.0,9600.434994620822,0,0.0,11336.121
2017-12-28 00:00:00+00:00,116.69,117.17,109.58865,52.314785,1.1549999,0.4678111587982833,9600.434994620822,0.0,0.0,9600.434994620822,0,0.0,11402.296
2017-12-29 00:00:00+00:00,117.34,116.82,109.6543,57.485874,1.1649992,0.4678111587982833,9600.434994620822,0.0,0.0,9600.434994620822,0,0.0,11368.236
2018-01-02 00:00:00+00:00,116.98,118.0,109.7203,56.215496,1.1757137,0.4678111587982833,9600.434994620822,0.0,0.0,9600.434994620822,0,0.0,11483.066
2018-01-03 00:00:00+00:00,118.0,118.19,109.78785,64.180954,1.1371428,0.4678111587982833,9600.434994620822,0.0,0.0,9600.434994620822,0,0.0,11501.556
2018-01-04 00:00:00+00:00,118.66,117.47,109.85095,64.09318,1.1914281,0.4678111587982833,9600.434994620822,0.0,0.0,9600.434994620822,0,0.0,11431.489
2018-01-05 00:00:00+00:00,117.74,118.92,109.9159,57.15964,1.2892854,0.4678111587982833,9600.434994620822,0.0,0.0,9600.434994620822,0,0.0,11572.594
2018-01-08 00:00:00+00:00,119.0,118.72,109.98925,83.81968,1.1621426,0.4678111587982833,9600.434994620822,0.0,0.0,9600.434994620822,0,0.0,11553.13
2018-01-09 00:00:00+00:00,119.05,118.22,110.05975,78.05265,1.0928574,0.4678111587982833,9600.434994620822,0.0,0.0,9600.434994620822,0,0.0,11504.473
2018-01-10 00:00:00+00:00,117.97,116.61,110.1319,67.62234,1.0635713,0.4678111587982833,9600.434994620822,0.0,0.0,9600.434994620822,0,0.0,11347.797
2018-01-11 00:00:00+00:00,116.69,117.57,110.19585,52.038067,1.1414288,0.4678111587982833,9600.434994620822,0.0,0.0,9600.434994620822,0,0.0,11441.219
2018-01-12 00:00:00+00:00,118.01,118.17,110.25885,58.629116,1.1885713,0.4678111587982833,9600.434994620822,0.0,0.0,9600.434994620822,0,0.0,11499.607
2018-01-16 00:00:00+00:00,118.56,116.64,110.32085,61.371426,1.2014285,0.4678111587982833,9600.434994620822,0.0,0.0,9600.434994620822,0,0.0,11350.718
2018-01-17 00:00:00+00:00,116.6,114.5,110.3779,52.190834,1.3578573,0.4678111587982833,9600.434994620822,0.0,0.0,9600.434994620822,0,0.0,11142.466
2018-01-18 00:00:00+00:00,115.75,118.41,110.425,42.775974,1.5278577,0.5294117647058825,9600.434994620822,0.0,0.0,9600.434994620822,0,0.0,11522.964
2018-01-19 00:00:00+00:00,118.05,118.44,110.49165,55.992527,2.0250003,0.5294117647058825,-9.600434994621537,9595.637176032806,0.0,9586.036741038184,1,113.82643127441406,11525.884
2018-01-22 00:00:00+00:00,118.26,116.78,110.56,54.13144,2.143572,0.5490196078431373,-9.600434994621537,9461.1489917687,0.0,9451.548556774078,0,113.82643127441406,11364.342
2018-01-23 00:00:00+00:00,116.51,117.25,110.6189,49.880093,2.2464294,0.5490196078431373,-9.600434994621537,9499.22656686949,0.0,9489.62613187487,0,113.82643127441406,11410.079
2018-01-24 00:00:00+00:00,117.54,118.94,110.6788,47.651848,2.2757149,0.5294117647058825,-9.600434994621537,9636.145705709541,0.0,9626.54527071492,0,113.82643127441406,11574.54
2018-01-25 00:00:00+00:00,119.76,120.21,110.74325,52.146538,2.290001,0.4678111587982833,-9.600434994621537,9739.036384456289,0.0,9729.435949461667,0,113.82643127441406,11698.128
2018-01-26 00:00:00+00:00,120.5,121.47,110.81535,57.602657,2.2471433,0.4678111587982833,-9.600434994621537,9841.118190183304,0.0,9831.517755188683,0,113.82643127441406,11820.744
2018-01-29 00:00:00+00:00,120.91,119.57,110.8924,57.15088,2.2685716,0.4678111587982833,-9.600434994621537,9687.185890506238,0.0,9677.585455511617,0,114.72856903076172,11635.847
2018-01-30 00:00:00+00:00,119.2,118.35,110.96495,52.176136,2.3807144,0.4678111587982833,-9.600434994621537,9588.34518564146,0.0,9578.744750646838,0,114.72856903076172,11517.124
2018-01-31 00:00:00+00:00,118.87,118.73,111.0346,50.32098,2.4414291,0.4678111587982833,-9.600434994621537,9619.132424427115,0.0,9609.531989432493,0,114.72856903076172,11554.1045
2018-02-01 00:00:00+00:00,118.16,117.62,111.1013,55.573086,2.359286,0.4678111587982833,-9.600434994621537,9529.203839038515,0.0,9519.603404043894,0,114.72856903076172,11446.086
2018-02-02 00:00:00+00:00,117.28,115.61,111.1657,50.13042,2.4635718,0.4678111587982833,-9.600434994621537,9366.359754139594,0.0,9356.759319144972,0,114.72856903076172,11250.484
2018-02-05 00:00:00+00:00,115.29,111.98,111.21875,43.78038,2.5407147,0.4678111587982833,-9.600434994621537,9072.268665129048,0.0,9062.668230134426,0,114.72856903076172,10897.233
2018-02-06 00:00:00+00:00,110.33,113.96,111.2468,39.726646,2.7321434,0.4678111587982833,9209.23250219565,0.0,0.0,9209.23250219565,-1,0.0,11089.915
2018-02-07 00:00:00+00:00,113.86,114.13,111.2869,48.801064,2.8635716,0.4678111587982833,9209.23250219565,0.0,0.0,9209.23250219565,0,0.0,11106.459
2018-02-08 00:00:00+00:00,113.89,110.3,111.3175,38.604885,2.5557141,0.5294117647058825,9209.23250219565,0.0,0.0,9209.23250219565,0,0.0,10733.746
2018-02-09 00:00:00+00:00,111.76,112.37,111.3149,31.975203,2.6507144,0.4678111587982833,-9.209232502194936,9204.630187102099,0.0,9195.420954599904,1,106.4664306640625,10935.187
2018-02-12 00:00:00+00:00,113.0,113.98,111.32435,40.408882,2.8049998,0.4678111587982833,-9.209232502194936,9336.510863557312,0.0,9327.301631055117,0,106.4664306640625,11091.861
2018-02-13 00:00:00+00:00,113.44,114.56,111.3378,43.22421,2.8592856,0.4678111587982833,-9.209232502194936,9384.020331483553,0.0,9374.811098981358,0,106.4664306640625,11148.304
2018-02-14 00:00:00+00:00,113.85,116.32,111.3614,40.48652,2.8842854,0.4678111587982833,-9.209232502194936,9528.187947877112,0.0,9518.978715374917,0,106.4664306640625,11319.576
2018-02-15 00:00:00+00:00,116.24,116.19,111.3957,41.726925,2.992143,0.4678111587982833,-9.209232502194936,9517.539368039867,0.0,9508.330135537672,0,107.66714477539062,11306.926
2018-02-16 00:00:00+00:00,115.86,116.16,111.4293,38.20375,2.9821434,0.4678111587982833,-9.209232502194936,9515.081869695543,0.0,9505.872637193348,0,107.66714477539062,11304.007
2018-02-20 00:00:00+00:00,115.35,115.4,111.4641,41.686985,2.9528575,0.4678111587982833,-9.209232502194936,9452.827141512118,0.0,9443.617909009923,0,107.66714477539062,11230.048
2018-02-21 00:00:00+00:00,115.48,115.62,111.49165,42.643394,2.919286,0.4678111587982833,-9.209232502194936,9470.847963518232,0.0,9461.638731016037,0,107.66714477539062,11251.457
2018-02-22 00:00:00+00:00,116.27,115.86,111.51695,42.18199,3.029286,0.4678111587982833,-9.209232502194936,9490.507467882811,0.0,9481.298235380616,0,107.66714477539062,11274.8125
2018-02-23 00:00:00+00:00,116.68,117.46,111.5541,45.37328,2.908572,0.5294117647058825,-9.209232502194936,9621.569479317472,0.0,9612.360246815277,0,107.66714477539062,11430.515
2018-02-26 00:00:00+00:00,117.55,117.53,111.60215,54.970448,2.8821433,0.4678111587982833,-9.209232502194936,9627.303234646974,0.0,9618.094002144779,0,108.73428344726562,11437.327
2018-02-27 00:00:00+00:00,117.75,115.31,111.65055,68.438545,2.5971434,0.4678111587982833,-9.209232502194936,9445.454729527524,0.0,9436.24549702533,0,108.8835678100586,11221.288
2018-02-28 00:00:00+00:00,113.7,112.44,111.6898,54.41465,2.4550006,0.4678111587982833,-9.209232502194936,9210.362938453101,0.0,9201.153705950906,0,108.8835678100586,10941.998
2018-03-01 00:00:00+00:00,111.95,111.11,111.7164,45.302956,2.437858,0.4678111587982833,-9.209232502194936,9101.417775850676,0.0,9092.20854334848,0,108.8835678100586,10812.57
2018-03-02 00:00:00+00:00,110.23,110.25,111.73205,52.614582,2.359286,0.5294117647058825,-9.209232502194936,9030.972070906622,0.0,9021.762838404427,0,108.8835678100586,10728.88
2018-03-05 00:00:00+00:00,109.5,112.76,111.74625,42.577015,2.1492865,0.5490196078431373,-9.209232502194936,9236.57543383998,0.0,9227.366201337785,0,108.8835678100586,10973.139
2018-03-06 00:00:00+00:00,113.09,115.07,111.78265,45.98155,2.2371433,0.5294117647058825,-9.209232502194936,9425.795892315327,0.0,9416.586659813132,0,108.8835678100586,11197.935
2018-03-07 00:00:00+00:00,113.78,115.02,111.83105,51.50799,2.3242862,0.5490196078431373,-9.209232502194936,9421.700215651512,0.0,9412.490983149317,0,108.8835678100586,11193.068
2018-03-08 00:00:00+00:00,115.41,115.4,111.8725,45.723675,2.2007153,0.5490196078431373,-9.209232502194936,9452.82731084735,0.0,9443.618078345155,0,108.8835678100586,11230.047
2018-03-09 00:00:00+00:00,116.21,117.65,111.9174,47.443363,2.133572,0.5490196078431373,-9.209232502194936,9637.132814651193,0.0,9627.923582148998,0,108.8835678100586,11449.003
2018-03-12 00:00:00+00:00,117.65,116.46,111.97215,54.21618,2.1678576,0.4678111587982833,-9.209232502194936,9539.655249578378,0.0,9530.446017076183,0,111.24928283691406,11333.198
2018-03-13 00:00:00+00:00,117.2,116.07,112.01975,52.92817,2.2828577,0.5294117647058825,-9.209232502194936,9507.709159661728,0.0,9498.499927159533,0,111.24928283691406,11295.246
2018-03-14 00:00:00+00:00,116.48,115.04,112.06555,51.231518,2.2785716,0.4678111587982833,-9.209232502194936,9423.338323660664,0.0,9414.12909115847,0,111.24928283691406,11195.013
2018-03-15 00:00:00+00:00,115.21,114.28,112.10455,47.8489,2.3185713,0.4678111587982833,-9.209232502194936,9361.083981237012,0.0,9351.874748734817,0,111.24928283691406,11121.054
2018-03-16 00:00:00+00:00,114.29,114.93,112.14355,41.27333,2.3278568,0.4678111587982833,-9.209232502194936,9414.328262051751,0.0,9405.119029549556,0,111.24928283691406,11184.309
2018-03-19 00:00:00+00:00,114.42,113.22,112.1864,43.085114,2.3171425,0.4678111587982833,-9.209232502194936,9274.255949134646,0.0,9265.04671663245,0,111.24928283691406,11017.902
2018-03-20 00:00:00+00:00,115.0,113.85,112.2067,44.286507,2.2957137,0.4678111587982833,-9.209232502194936,9325.860988366156,0.0,9316.65175586396,0,111.24928283691406,11079.209
2018-03-21 00:00:00+00:00,114.0,113.95,112.22385,54.39251,2.2485712,0.5294117647058825,-9.209232502194936,9334.052209575,0.0,9324.842977072805,0,111.24928283691406,11088.939
2018-03-22 00:00:00+00:00,113.12,111.31,112.2518,59.58163,2.1699998,0.4678111587982833,-9.209232502194936,9117.800632221477,0.0,9108.591399719282,0,111.24928283691406,10832.031
2018-03-23 00:00:00+00:00,111.44,109.48,112.26645,53.192764,2.2635705,0.4678111587982833,-9.209232502194936,8967.899332912752,0.0,8958.690100410557,0,111.24928283691406,10653.946
2018-03-26 00:00:00+00:00,110.62,111.93,112.2746,39.698494,2.1792853,0.5490196078431373,9145.624858994968,0.0,0.0,9145.624858994968,-1,0.0,10892.365
2018-03-27 00:00:00+00:00,112.59,111.91,112.29465,40.22416,2.1207135,0.4678111587982833,-9.145624858994779,9141.054331829055,0.0,9131.90870697006,1,108.66107177734375,10890.42
2018-03-28 00:00:00+00:00,112.18,109.97,112.30455,40.299454,2.1799986,0.5294117647058825,-9.145624858994779,8982.59090733629,0.0,8973.445282477294,0,108.72893524169922,10701.63
2018-03-29 00:00:00+00:00,110.36,111.6,112.3037,34.565083,2.329998,0.4678111587982833,-9.145624858994779,9115.73306730328,0.0,9106.587442444285,0,108.72893524169922,10860.252
2018-04-02 00:00:00+00:00,111.55,108.26,112.30385,32.1744,2.3457124,0.4678111587982833,-9.145624858994779,8842.914974145102,0.0,8833.769349286107,0,108.72893524169922,10535.224
2018-04-03 00:00:00+00:00,108.5,110.18,112.28765,28.55647,2.4557118,0.5294117647058825,8977.099921893763,0.0,0.0,8977.099921893763,-1,0.0,10722.067
2018-04-04 00:00:00+00:00,108.39,110.79,112.28195,35.738487,2.4764264,0.4678111587982833,-8.977099921894478,8972.61361508622,0.0,8963.636515164326,1,106.49642944335938,10781.429
2018-04-05 00:00:00+00:00,111.7,111.67,112.2801,39.49579,2.5385692,0.5490196078431373,-8.977099921894478,9043.882322024629,0.0,9034.905222102734,0,107.07536315917969,10867.065
2018-04-06 00:00:00+00:00,110.6,109.39,112.2829,43.587215,2.5128555,0.5490196078431373,-8.977099921894478,8859.230907272746,0.0,8850.253807350851,0,107.86214447021484,10645.189
2018-04-09 00:00:00+00:00,110.3,109.61,112.27595,37.397617,2.6628554,0.4678111587982833,-8.977099921894478,8877.048414615632,0.0,8868.071314693738,0,107.86214447021484,10666.598
2018-04-10 00:00:00+00:00,110.62,110.36,112.2706,41.19081,2.6407127,0.5490196078431373,-8.977099921894478,8937.789565227333,0.0,8928.812465305438,0,107.86214447021484,10739.584
2018-04-11 00:00:00+00:00,109.38,109.28,112.26955,41.533234,2.5892842,0.4678111587982833,-8.977099921894478,8850.322670853031,0.0,8841.345570931137,0,107.86214447021484,10634.484
2018-04-12 00:00:00+00:00,109.75,110.04,112.26255,39.184803,2.5935702,0.5294117647058825,-8.977099921894478,8911.873744000992,0.0,8902.896644079097,0,107.86214447021484,10708.444
2018-04-13 00:00:00+00:00,110.65,110.0,112.25865,46.77829,2.5199993,0.5294117647058825,-8.977099921894478,8908.634021870415,0.0,8899.65692194852,0,107.86214447021484,10704.551
2018-04-16 00:00:00+00:00,110.88,111.77,112.2562,51.450886,2.4457135,0.5490196078431373,-8.977099921894478,9051.9816929348,0.0,9043.004593012905,0,107.86214447021484,10876.796
2018-04-17 00:00:00+00:00,112.2,113.08,112.2597,49.535954,2.4014282,0.5555555555555556,-8.977099921894478,9158.07578960348,0.0,9149.098689681585,0,108.10142517089844,11004.278
2018-04-18 00:00:00+00:00,113.31,113.19,112.27685,53.15704,2.3564284,0.7701978136387299,-8.977099921894478,9166.98428770509,0.0,9158.007187783196,0,108.10142517089844,11014.982
2018-04-19 00:00:00+00:00,113.75,109.64,112.293,59.640724,2.2242863,0.5294117647058825,-8.977099921894478,8879.477878514259,0.0,8870.500778592364,0,108.10142517089844,10669.517
2018-04-20 00:00:00+00:00,109.46,108.87,112.28815,44.736847,2.4357152,0.5294117647058825,-8.977099921894478,8817.11751070867,0.0,8808.140410786775,0,108.10142517089844,10594.585
2018-04-23 00:00:00+00:00,108.8,108.88,112.2791,51.900314,2.2478583,0.5294117647058825,-8.977099921894478,8817.926844090709,0.0,8808.949744168815,0,108.10142517089844,10595.558
2018-04-24 00:00:00+00:00,108.97,105.77,112.27325,45.4031,2.1378589,0.5490196078431373,-8.977099921894478,8566.05546993396,0.0,8557.078370012065,0,108.10142517089844,10292.91
2018-04-25 00:00:00+00:00,107.46,107.88,112.2471,34.91585,2.289287,0.5294117647058825,8714.856853333193,0.0,0.0,8714.856853333193,-1,0.0,10498.243
2018-04-26 00:00:00+00:00,107.97,107.7,112.2316,39.395634,2.4457157,0.5490196078431373,-8.714856853333913,8710.501602531927,0.0,8701.786745678593,1,104.4460678100586,10480.727
2018-04-27 00:00:00+00:00,107.31,107.97,112.21525,44.64172,2.3164296,0.5294117647058825,-8.714856853333913,8732.338580574202,0.0,8723.623723720868,0,104.4460678100586,10507.002
2018-04-30 00:00:00+00:00,108.51,105.88,112.1959,44.816692,2.255001,0.5555555555555556,-8.714856853333913,8563.30439696675,0.0,8554.589540113417,0,104.49535369873047,10303.615
2018-05-01 00:00:00+00:00,105.1,106.92,112.1633,36.946384,2.3628583,0.5490196078431373,-8.714856853333913,8647.417350200096,0.0,8638.702493346762,0,104.49535369873047,10404.823
2018-05-02 00:00:00+00:00,107.05,105.71,112.1339,43.10748,2.443573,0.4678111587982833,-8.714856853333913,8549.5559472596,0.0,8540.841090406266,0,104.49535369873047,10287.072
2018-05-03 00:00:00+00:00,105.55,104.96,112.09765,37.67786,2.4485724,0.5294117647058825,-8.714856853333913,8488.898044094129,0.0,8480.183187240795,0,104.49535369873047,10214.087
2018-05-04 00:00:00+00:00,104.48,106.4,112.0577,36.214443,2.4878578,0.4678111587982833,8583.739079420495,0.0,0.0,8583.739079420495,-1,0.0,10354.22
2018-05-07 00:00:00+00:00,106.48,106.21,112.0217,35.041805,2.5521436,0.4678111587982833,8583.739079420495,0.0,0.0,8583.739079420495,0,0.0,10335.7295
2018-05-08 00:00:00+00:00,106.07,106.68,112.01915,29.590021,2.5178583,0.4678111587982833,8583.739079420495,0.0,0.0,8583.739079420495,0,0.0,10381.466
2018-05-09 00:00:00+00:00,106.71,107.05,112.0207,31.064577,2.529287,0.4678111587982833,8583.739079420495,0.0,0.0,8583.739079420495,0,0.0,10417.474
2018-05-10 00:00:00+00:00,107.26,106.11,112.029,40.756622,2.2278583,0.5294117647058825,8583.739079420495,0.0,0.0,8583.739079420495,0,0.0,10325.998
2018-05-11 00:00:00+00:00,105.85,100.43,112.024,40.267986,2.2157152,0.5294117647058825,-8.583739079420411,8579.449354743123,0.0,8570.865615663703,1,102.7682113647461,9773.254
2018-05-14 00:00:00+00:00,101.04,102.97,111.9924,28.715395,2.5607147,0.5294117647058825,8774.655572440812,0.0,0.0,8774.655572440812,-1,0.0,10020.432
2018-05-15 00:00:00+00:00,102.78,103.03,111.9765,42.73861,2.380715,0.4678111587982833,-8.774655572440679,8770.270437222202,0.0,8761.49578164976,1,99.1289291381836,10026.2705
2018-05-16 00:00:00+00:00,101.89,103.5,111.9615,35.92573,2.22,0.5294117647058825,-8.774655572440679,8810.278498013835,0.0,8801.503842441394,0,99.45892333984375,10072.009
2018-05-17 00:00:00+00:00,103.26,104.41,111.95275,38.01372,2.300001,0.5555555555555556,-8.774655572440679,8887.740943585379,0.0,8878.966288012938,0,100.16999816894531,10160.564
2018-05-18 00:00:00+00:00,104.16,104.95,111.94925,40.198254,2.3235724,0.5490196078431373,-8.774655572440679,8933.7074067742,0.0,8924.932751201759,0,100.95999908447266,10213.114
2018-05-21 00:00:00+00:00,105.5,105.03,111.94295,47.20048,2.189287,0.5555555555555556,-8.774655572440679,8940.517959712937,0.0,8931.743304140497,0,101.46463775634766,10220.899
2018-05-22 00:00:00+00:00,105.03,102.84,111.94475,43.961666,2.0535724,0.907556400912986,-8.774655572440679,8754.097477598587,0.0,8745.322822026146,0,101.7460708618164,10007.782
2018-05-23 00:00:00+00:00,102.24,102.71,111.9339,41.371014,2.0992873,0.5555555555555556,-8.774655572440679,8743.031464065418,0.0,8734.256808492977,0,101.7460708618164,9995.131
2018-05-24 00:00:00+00:00,102.36,102.5,111.92175,42.973145,2.0535736,0.9515732190766027,-8.774655572440679,8725.155824550473,0.0,8716.381168978032,0,101.7460708618164,9974.695
2018-05-25 00:00:00+00:00,102.04,103.4,111.91725,36.806496,1.9485735,0.7533277539742922,-8.774655572440679,8801.766875801537,0.0,8792.992220229096,0,101.7460708618164,10062.278
2018-05-29 00:00:00+00:00,102.44,101.04,111.9174,40.92964,1.9842879,0.5555555555555556,-8.774655572440679,8600.875442003311,0.0,8592.10078643087,0,101.7460708618164,9832.617
2018-05-30 00:00:00+00:00,101.53,101.43,111.91595,33.77446,2.0971446,0.5294117647058825,8612.348002120056,0.0,0.0,8612.348002120056,-1,0.0,9870.569
2018-05-31 00:00:00+00:00,101.68,100.92,111.91945,33.850567,2.110001,0.5490196078431373,-8.612348002119688,8608.04398012999,0.0,8599.431632127871,1,98.28428649902344,9820.939
2018-06-01 00:00:00+00:00,101.57,102.01,111.91125,34.7083,2.0521443,0.5555555555555556,-8.612348002119688,8701.017046547175,0.0,8692.404698545055,0,98.28428649902344,9927.013
2018-06-04 00:00:00+00:00,102.45,102.43,111.9066,56.381264,1.7771437,0.5490196078431373,-8.612348002119688,8736.841312832314,0.0,8728.228964830194,0,98.9317855834961,9967.885
2018-06-05 00:00:00+00:00,102.46,102.5,111.90005,47.368416,1.6592865,0.5555555555555556,-8.612348002119688,8742.812304830804,0.0,8734.199956828685,0,99.7642822265625,9974.696
2018-06-06 00:00:00+00:00,102.53,103.93,111.89915,47.419678,1.6235722,0.5294117647058825,-8.612348002119688,8864.784873682114,0.0,8856.172525679995,0,100.01107025146484,10113.855
2018-06-07 00:00:00+00:00,104.19,103.09,111.9084,51.914516,1.5857146,0.5490196078431373,-8.612348002119688,8793.13622656025,0.0,8784.52387855813,0,101.49464416503906,10032.111
2018-06-08 00:00:00+00:00,102.99,104.15,111.9119,44.08599,1.6085712,0.5490196078431373,-8.612348002119688,8883.54969826923,0.0,8874.93735026711,0,101.49464416503906,10135.265
2018-06-11 00:00:00+00:00,103.89,103.93,111.90995,46.575367,1.6499994,0.5490196078431373,-8.612348002119688,8864.7847185636,0.0,8856.17237056148,0,101.73714447021484,10113.855
2018-06-12 00:00:00+00:00,104.0,103.53,111.91145,45.34688,1.6435705,0.5555555555555556,-8.612348002119688,8830.666542218825,0.0,8822.054194216706,0,101.73714447021484,10074.931
2018-06-13 00:00:00+00:00,103.62,103.3,111.91055,53.43969,1.5778558,0.5490196078431373,-8.612348002119688,8811.048998241622,0.0,8802.436650239502,0,101.73714447021484,10052.549
2018-06-14 00:00:00+00:00,103.62,103.96,111.90845,52.91216,1.5592842,0.5490196078431373,-8.612348002119688,8867.344033378531,0.0,8858.731685376411,0,101.73714447021484,10116.776
2018-06-15 00:00:00+00:00,104.09,105.38,111.9075,56.8998,1.5621414,0.5490196078431373,-8.612348002119688,8988.46414611816,0.0,8979.85179811604,0,101.73714447021484,10254.963
2018-06-18 00:00:00+00:00,104.44,105.0,111.9151,58.918896,1.5392838,0.5294117647058825,-8.612348002119688,8956.05208776999,0.0,8947.43973976787,0,103.03678894042969,10217.983
2018-06-19 00:00:00+00:00,104.05,104.13,111.92105,71.71052,1.455712,0.4678111587982833,-8.612348002119688,8881.844381746232,0.0,8873.232033744112,0,103.03678894042969,10133.32
2018-06-20 00:00:00+00:00,104.01,105.14,111.9201,64.06248,1.4928551,0.4678111587982833,-8.612348002119688,8967.993510197673,0.0,8959.381162195554,0,103.03678894042969,10231.608
2018-06-21 00:00:00+00:00,104.81,104.3,111.92285,70.89108,1.5142839,0.5294117647058825,-8.612348002119688,8896.34563285498,0.0,8887.73328485286,0,103.03678894042969,10149.865
2018-06-22 00:00:00+00:00,104.65,105.42,111.92715,61.62437,1.4764273,0.4678111587982833,-8.612348002119688,8991.876848315513,0.0,8983.264500313393,0,103.03678894042969,10258.857
2018-06-25 00:00:00+00:00,105.11,105.11,111.93325,64.17061,1.5242844,0.4678111587982833,-8.612348002119688,8965.435378866014,0.0,8956.823030863894,0,103.20536041259766,10228.689
2018-06-26 00:00:00+00:00,105.51,105.83,111.93875,62.094543,1.5221416,0.4678111587982833,-8.612348002119688,9026.84864883171,0.0,9018.23630082959,0,103.20536041259766,10298.757
2018-06-27 00:00:00+00:00,106.27,105.11,111.94995,59.424618,1.4778563,0.4678111587982833,-8.612348002119688,8965.435446636844,0.0,8956.823098634724,0,103.54679107666016,10228.689
2018-06-28 00:00:00+00:00,105.5,105.72,111.946,60.14059,1.4464281,0.4678111587982833,-8.612348002119688,9017.466045020821,0.0,9008.853697018701,0,103.54679107666016,10288.052
2018-06-29 00:00:00+00:00,105.69,103.73,111.94115,58.25448,1.5314282,0.4678111587982833,-8.612348002119688,8847.727882744692,0.0,8839.115534742572,0,103.55036163330078,10094.397
2018-07-02 00:00:00+00:00,102.72,102.68,111.9345,49.113487,1.633571,0.5294117647058825,8736.417353398589,0.0,0.0,8736.417353398589,-1,0.0,9992.217
2018-07-03 00:00:00+00:00,102.88,102.0,111.9155,46.437553,1.7028574,0.5490196078431373,-8.736417353398792,8732.051327734722,0.0,8723.314910381323,1,100.22964477539062,9926.043
2018-07-05 00:00:00+00:00,101.95,102.81,111.894,44.74958,1.7699999,0.4678111587982833,-8.736417353398792,8801.393654756923,0.0,8792.657237403524,0,100.22964477539062,10004.867
2018-07-06 00:00:00+00:00,102.36,103.0,111.87405,45.411003,1.7557138,0.5490196078431373,-8.736417353398792,8817.659524592502,0.0,8808.923107239103,0,100.22964477539062,10023.357
2018-07-09 00:00:00+00:00,103.22,103.92,111.84735,39.469036,1.7514284,0.4678111587982833,-8.736417353398792,8896.418810423851,0.0,8887.682393070452,0,100.3664321899414,10112.887
2018-07-10 00:00:00+00:00,104.12,104.8,111.8229,45.43918,1.7192857,0.5294117647058825,-8.736417353398792,8971.75502909294,0.0,8963.01861173954,0,101.29285430908203,10198.524
2018-07-11 00:00:00+00:00,103.91,103.75,111.80195,52.82703,1.6592859,0.5490196078431373,-8.736417353398792,8881.865906958175,0.0,8873.129489604777,0,102.22107696533203,10096.344
2018-07-12 00:00:00+00:00,104.44,103.84,111.7769,44.154755,1.6742865,0.5490196078431373,-8.736417353398792,8889.570801286882,0.0,8880.834383933483,0,102.22107696533203,10105.103
2018-07-13 00:00:00+00:00,103.41,103.99,111.7503,47.935337,1.6450005,0.5490196078431373,-8.736417353398792,8902.412481213993,0.0,8893.676063860594,0,102.22107696533203,10119.699
2018-07-16 00:00:00+00:00,103.85,102.37,111.7277,42.96952,1.6228578,0.5490196078431373,-8.736417353398792,8763.72723504949,0.0,8754.99081769609,0,102.22107696533203,9962.051
2018-07-17 00:00:00+00:00,102.35,105.41,111.6996,38.066216,1.7085718,0.5490196078431373,-8.736417353398792,9023.976860675479,0.0,9015.24044332208,0,102.22107696533203,10257.887
2018-07-18 00:00:00+00:00,106.33,106.75,111.6824,48.478268,1.8485718,0.5555555555555556,-8.736417353398792,9138.69182226013,0.0,9129.955404906732,0,102.8471450805664,10388.287
2018-07-19 00:00:00+00:00,106.75,106.39,111.67285,55.686546,1.8985716,0.5490196078431373,-8.736417353398792,9107.872761182794,0.0,9099.136343829396,0,103.97714233398438,10353.254
2018-07-20 00:00:00+00:00,105.88,105.0,111.6498,52.364143,1.9442858,0.5555555555555556,-8.736417353398792,8988.87695248408,0.0,8980.140535130682,0,103.97714233398438,10217.987
2018-07-23 00:00:00+00:00,104.53,104.41,111.61485,54.67943,1.8892854,0.6529686426063801,-8.736417353398792,8938.368547562333,0.0,8929.632130208935,0,103.97714233398438,10160.572
2018-07-24 00:00:00+00:00,104.78,106.05,111.5756,56.598034,1.7921426,0.8461774716694029,-8.736417353398792,9078.76577634736,0.0,9070.029358993961,0,103.97714233398438,10320.168
2018-07-25 00:00:00+00:00,108.01,109.28,111.5407,64.39234,1.8057142,0.5490196078431373,9332.510752468874,0.0,0.0,9332.510752468874,-1,0.0,10634.491
2018-07-26 00:00:00+00:00,109.36,110.66,111.5207,69.617966,1.9692857,0.5490196078431373,-9.332510752468806,9327.846829054348,0.0,9318.514318301879,1,106.57142639160156,10768.785
2018-07-27 00:00:00+00:00,110.27,109.44,111.5108,71.66292,1.9978572,0.5294117647058825,-9.332510752468806,9225.009434057703,0.0,9215.676923305235,0,107.7060775756836,10650.0625
2018-07-30 00:00:00+00:00,109.57,109.74,111.4961,65.3504,2.0664291,0.5294117647058825,-9.332510752468806,9250.297192400465,0.0,9240.964681647996,0,107.7060775756836,10679.257
2018-07-31 00:00:00+00:00,109.87,110.66,111.48275,64.1954,2.1257145,0.4678111587982833,-9.332510752468806,9327.84717451344,0.0,9318.51466376097,0,107.7060775756836,10768.787
2018-08-01 00:00:00+00:00,110.25,109.73,111.46905,70.00581,2.1221423,0.4678111587982833,-9.332510752468806,9249.454681032277,0.0,9240.122170279808,0,107.7060775756836,10678.284
2018-08-02 00:00:00+00:00,109.32,109.32,111.4502,66.26176,2.1464283,0.4678111587982833,-9.332510752468806,9214.894130876366,0.0,9205.561620123897,0,107.7060775756836,10638.385
2018-08-03 00:00:00+00:00,109.93,110.95,111.43095,64.507355,2.1442854,0.4678111587982833,-9.332510752468806,9352.291338280458,0.0,9342.95882752799,0,107.7060775756836,10797.007
2018-08-06 00:00:00+00:00,110.37,110.32,111.4209,73.340576,2.117143,0.4678111587982833,-9.332510752468806,9299.186816389503,0.0,9289.854305637034,0,107.73356628417969,10735.699
2018-08-07 00:00:00+00:00,110.55,109.96,111.4081,65.37257,1.9499997,0.4678111587982833,-9.332510752468806,9268.84138364168,0.0,9259.508872889211,0,107.73356628417969,10700.666
2018-08-08 00:00:00+00:00,110.16,109.25,111.38635,60.707138,1.874286,0.4678111587982833,-9.332510752468806,9208.993294527938,0.0,9199.66078377547,0,107.73356628417969,10631.572
2018-08-09 00:00:00+00:00,108.81,109.21,111.3438,59.322037,1.7242862,0.4678111587982833,-9.332510752468806,9205.621409358891,0.0,9196.288898606423,0,107.73356628417969,10627.68
2018-08-10 00:00:00+00:00,108.68,107.46,111.3054,65.04646,1.7478578,0.4678111587982833,-9.332510752468806,9058.108945710963,0.0,9048.776434958494,0,107.73356628417969,10457.38
2018-08-13 00:00:00+00:00,107.29,106.08,111.2555,60.06599,1.7935715,0.4678111587982833,8919.040066150998,0.0,0.0,8919.040066150998,-1,0.0,10323.087
2018-08-14 00:00:00+00:00,106.06,106.85,111.1973,50.100735,1.7864287,0.4678111587982833,8919.040066150998,0.0,0.0,8919.040066150998,0,0.0,10398.019
2018-08-15 00:00:00+00:00,106.52,107.03,111.1382,40.22526,1.6142862,0.4678111587982833,8919.040066150998,0.0,0.0,8919.040066150998,0,0.0,10415.535
2018-08-16 00:00:00+00:00,107.85,107.9,111.0837,33.837906,1.6071428,0.4678111587982833,8919.040066150998,0.0,0.0,8919.040066150998,0,0.0,10500.198
2018-08-17 00:00:00+00:00,108.02,108.42,111.0424,42.922787,1.5578569,0.5294117647058825,8919.040066150998,0.0,0.0,8919.040066150998,0,0.0,10550.802
2018-08-20 00:00:00+00:00,108.85,109.73,111.0033,44.054054,1.5064284,0.4678111587982833,-8.919040066151865,8914.582774763616,0.0,8905.663734697464,1,106.08321380615234,10678.284
2018-08-21 00:00:00+00:00,109.98,111.08,110.97235,45.953,1.5535715,0.4678111587982833,-8.919040066151865,9024.257776943561,0.0,9015.33873687741,0,107.4703598022461,10809.657
2018-08-22 00:00:00+00:00,111.04,110.6,110.94695,55.667503,1.5985712,0.5294117647058825,-8.919040066151865,8985.261995980089,0.0,8976.342955913937,0,107.4703598022461,10762.946
2018-08-23 00:00:00+00:00,110.26,109.77,110.9173,55.342236,1.587143,0.5294117647058825,-8.919040066151865,8917.831892463279,0.0,8908.912852397127,0,108.20214080810547,10682.177
2018-08-24 00:00:00+00:00,110.24,110.62,110.88445,44.722717,1.5450003,0.5294117647058825,-8.919040066151865,8986.886925937097,0.0,8977.967885870945,0,108.20214080810547,10764.894
2018-08-27 00:00:00+00:00,110.78,111.13,110.85585,51.315804,1.5342865,0.4678111587982833,-8.919040066151865,9028.319171307687,0.0,9019.400131241535,0,108.30250549316406,10814.522
2018-08-28 00:00:00+00:00,111.36,109.87,110.8309,55.064926,1.5271432,0.4678111587982833,-8.919040066151865,8925.956128907437,0.0,8917.037088841285,0,108.30250549316406,10691.907
2018-08-29 00:00:00+00:00,109.99,111.66,110.8046,52.561996,1.5385715,0.4678111587982833,-8.919040066151865,9071.377591713828,0.0,9062.458551647676,0,108.30250549316406,10866.1
2018-08-30 00:00:00+00:00,111.34,110.66,110.78955,58.844784,1.5757147,0.4678111587982833,-8.919040066151865,8990.136359718736,0.0,8981.217319652584,0,108.30250549316406,10768.785
2018-08-31 00:00:00+00:00,110.37,110.54,110.7701,62.21376,1.5478581,0.4678111587982833,-8.919040066151865,8980.38703414954,0.0,8971.467994083388,0,108.30250549316406,10757.107
2018-09-04 00:00:00+00:00,110.5,109.88,110.75105,68.83445,1.5028578,0.4678111587982833,-8.919040066151865,8926.767689319931,0.0,8917.84864925378,0,108.30250549316406,10692.88
2018-09-05 00:00:00+00:00,109.34,110.6,110.7335,62.915585,1.5278577,0.4678111587982833,-8.919040066151865,8985.26102213258,0.0,8976.341982066428,0,108.30250549316406,10762.946
2018-09-06 00:00:00+00:00,110.95,112.0,110.71645,64.54766,1.5614291,0.4678111587982833,-8.919040066151865,9098.998598335347,0.0,9090.079558269195,0,108.30821228027344,10899.187
2018-09-07 00:00:00+00:00,111.42,111.51,110.7073,66.0156,1.5785719,0.4678111587982833,-8.919040066151865,9059.190653017255,0.0,9050.271612951103,0,108.30821228027344,10851.502
2018-09-10 00:00:00+00:00,112.12,112.09,110.69045,62.098675,1.5900007,0.4854014598540146,-8.919040066151865,9106.30950126738,0.0,9097.390461201228,0,108.30821228027344,10907.943
2018-09-11 00:00:00+00:00,111.65,112.59,110.6742,59.800636,1.5200005,0.06400508120449905,-8.919040066151865,9146.929946903643,0.0,9138.010906837491,0,108.30821228027344,10956.6
2018-09-12 00:00:00+00:00,112.4,112.03,110.6608,56.74707,1.4950006,0.4854014598540146,-8.919040066151865,9101.435228569604,0.0,9092.516188503452,0,108.30821228027344,10902.1045
2018-09-13 00:00:00+00:00,112.91,112.95,110.64045,56.34428,1.4957144,0.4854014598540146,9153.493723985604,0.0,0.0,9153.493723985604,-1,0.0,10991.633
2018-09-14 00:00:00+00:00,112.82,112.17,110.62595,63.99649,1.5392859,0.4854014598540146,9153.493723985604,0.0,0.0,9153.493723985604,0,0.0,10915.729
2018-09-17 00:00:00+00:00,112.28,112.99,110.6001,56.86447,1.5850002,0.4854014598540146,9153.493723985604,0.0,0.0,9153.493723985604,0,0.0,10995.526
2018-09-18 00:00:00+00:00,113.48,113.27,110.58,58.01725,1.629286,0.4854014598540146,9153.493723985604,0.0,0.0,9153.493723985604,0,0.0,11022.775
2018-09-19 00:00:00+00:00,113.66,115.05,110.5621,66.007515,1.592858,0.4854014598540146,9153.493723985604,0.0,0.0,9153.493723985604,0,0.0,11195.996
2018-09-20 00:00:00+00:00,115.6,115.92,110.5577,65.975494,1.5578581,0.38461538461538464,9153.493723985604,0.0,0.0,9153.493723985604,0,0.0,11280.659
2018-09-21 00:00:00+00:00,116.51,115.98,110.5495,75.095406,1.5578575,0.17061475629245343,9153.493723985604,0.0,0.0,9153.493723985604,0,0.0,11286.498
2018-09-24 00:00:00+00:00,113.0,112.69,110.54565,76.10366,1.5400009,0.4854014598540146,9153.493723985604,0.0,0.0,9153.493723985604,0,0.0,10966.334
2018-09-25 00:00:00+00:00,113.02,111.54,110.52815,60.766308,1.842144,0.4854014598540146,9153.493723985604,0.0,0.0,9153.493723985604,0,0.0,10854.423
2018-09-26 00:00:00+00:00,111.51,110.39,110.5053,53.486656,1.8385729,0.4854014598540146,9153.493723985604,0.0,0.0,9153.493723985604,0,0.0,10742.512
2018-09-27 00:00:00+00:00,110.39,108.99,110.47765,43.91534,1.8592873,0.4854014598540146,9153.493723985604,0.0,0.0,9153.493723985604,0,0.0,10606.272
2018-09-28 00:00:00+00:00,108.79,109.13,110.4442,41.089092,1.8621445,0.4854014598540146,9153.493723985604,0.0,0.0,9153.493723985604,0,0.0,10619.8955
2018-10-01 00:00:00+00:00,109.66,109.75,110.4104,39.197086,1.930002,0.5076923076923077,9153.493723985604,0.0,0.0,9153.493723985604,0,0.0,10680.2295
2018-10-02 00:00:00+00:00,109.88,110.21,110.3779,39.725056,1.8900021,0.4854014598540146,9153.493723985604,0.0,0.0,9153.493723985604,0,0.0,10724.994
2018-10-03 00:00:00+00:00,110.65,108.73,110.35985,43.36735,1.8828593,0.4854014598540146,9153.493723985604,0.0,0.0,9153.493723985604,0,0.0,10580.969
2018-10-04 00:00:00+00:00,108.2,108.46,110.32805,35.224117,1.9571451,0.5076923076923077,9153.493723985604,0.0,0.0,9153.493723985604,0,0.0,10554.694
2018-10-05 00:00:00+00:00,108.37,108.02,110.2897,36.5287,1.9385736,0.4854014598540146,9153.493723985604,0.0,0.0,9153.493723985604,0,0.0,10511.875
2018-10-08 00:00:00+00:00,108.02,109.58,110.24825,31.44139,1.9178592,0.4854014598540146,9153.493723985604,0.0,0.0,9153.493723985604,0,0.0,10663.686
2018-10-09 00:00:00+00:00,100.07,98.56,110.21535,37.423347,1.9692879,0.4854014598540146,9153.493723985604,0.0,0.0,9153.493723985604,0,0.0,9591.283
2018-10-10 00:00:00+00:00,101.18,99.6,110.12725,15.516536,2.6350021,0.59375,9153.493723985604,0.0,0.0,9153.493723985604,0,0.0,9692.489
2018-10-11 00:00:00+00:00,99.3,96.38,110.0443,16.112991,2.813574,0.4854014598540146,-9.153493723984866,9148.919264353428,0.0,9139.765770629443,1,95.64749145507812,9379.138
2018-10-12 00:00:00+00:00,97.24,95.09,109.9448,14.023511,2.9942877,0.59375,-9.153493723984866,9026.465362263421,0.0,9017.311868539437,0,95.64749145507812,9253.603
2018-10-15 00:00:00+00:00,94.84,96.15,109.8378,15.134724,2.8414302,0.59375,9104.24267666189,0.0,0.0,9104.24267666189,-1,0.0,9356.756
2018-10-16 00:00:00+00:00,96.62,98.18,109.7327,19.40361,2.850001,0.5076923076923077,-9.10424267666167,9099.692830246768,0.0,9090.588587570106,1,91.88785552978516,9554.304
2018-10-17 00:00:00+00:00,97.97,98.12,109.6395,26.546314,2.8785722,0.59375,-9.10424267666167,9094.131767518093,0.0,9085.027524841431,0,93.90499877929688,9548.465
2018-10-18 00:00:00+00:00,99.23,98.99,109.5401,27.987064,2.8628578,0.59375,-9.10424267666167,9174.766412352637,0.0,9165.662169675976,0,93.90499877929688,9633.128
2018-10-19 00:00:00+00:00,100.36,101.39,109.4441,30.055086,2.9471436,0.4854014598540146,-9.10424267666167,9397.20774799625,0.0,9388.103505319588,0,94.69570922851562,9866.682
2018-10-22 00:00:00+00:00,101.61,101.66,109.3637,34.63236,3.063572,0.4854014598540146,-9.10424267666167,9422.232665584781,0.0,9413.12842290812,0,96.96928405761719,9892.957
2018-10-23 00:00:00+00:00,100.11,100.63,109.2774,34.172546,3.1378577,0.4854014598540146,-9.10424267666167,9326.767588443292,0.0,9317.66334576663,0,97.06464385986328,9792.723
2018-10-24 00:00:00+00:00,99.9,97.78,109.18695,34.75151,3.178572,0.5076923076923077,-9.10424267666167,9062.618941431658,0.0,9053.514698754996,0,97.06464385986328,9515.377
2018-10-25 00:00:00+00:00,102.94,103.71,109.08475,31.674688,3.294286,0.5076923076923077,-9.10424267666167,9612.233208187961,0.0,9603.1289655113,0,97.06464385986328,10092.449
2018-10-26 00:00:00+00:00,102.58,102.83,109.02025,43.77708,3.6607144,0.59375,-9.10424267666167,9530.67150599308,0.0,9521.567263316418,0,98.76856994628906,10006.8125
2018-10-29 00:00:00+00:00,105.05,102.89,108.94655,40.058914,3.7271423,0.4854014598540146,9512.823207190537,0.0,0.0,9512.823207190537,-1,0.0,10012.65
2018-10-30 00:00:00+00:00,102.98,104.22,108.87015,59.41714,3.2435706,0.38461538461538464,9512.823207190537,0.0,0.0,9512.823207190537,0,0.0,10142.078
2018-10-31 00:00:00+00:00,105.0,105.09,108.80805,59.922684,3.1392844,0.4854014598540146,9512.823207190537,0.0,0.0,9512.823207190537,0,0.0,10226.741
2018-11-01 00:00:00+00:00,105.09,106.74,108.761,70.80745,3.0364277,0.38461538461538464,9512.823207190537,0.0,0.0,9512.823207190537,0,0.0,10387.309
2018-11-02 00:00:00+00:00,106.87,106.91,108.70265,77.36027,2.9435709,0.4854014598540146,9512.823207190537,0.0,0.0,9512.823207190537,0,0.0,10403.853
2018-11-05 00:00:00+00:00,106.85,106.45,108.645,76.37255,2.9485714,0.4854014598540146,9512.823207190537,0.0,0.0,9512.823207190537,0,0.0,10359.087
2018-11-06 00:00:00+00:00,106.66,107.36,108.59335,71.95962,2.8700006,0.4854014598540146,9512.823207190537,0.0,0.0,9512.823207190537,0,0.0,10447.643
2018-11-07 00:00:00+00:00,108.0,109.53,108.5439,73.475586,2.8628578,0.4854014598540146,9512.823207190537,0.0,0.0,9512.823207190537,0,0.0,10658.814
2018-11-08 00:00:00+00:00,108.52,108.67,108.49685,75.11914,2.8442862,0.4220885816188513,9512.823207190537,0.0,0.0,9512.823207190537,0,0.0,10575.125
2018-11-09 00:00:00+00:00,108.2,107.71,108.43915,68.72426,2.914286,0.4854014598540146,9512.823207190537,0.0,0.0,9512.823207190537,0,0.0,10481.704
2018-11-12 00:00:00+00:00,107.7,105.4,108.37035,65.0273,2.9357142,0.4854014598540146,9512.823207190537,0.0,0.0,9512.823207190537,0,0.0,10256.909
2018-11-13 00:00:00+00:00,105.64,104.31,108.2995,61.139664,2.8871422,0.5076923076923077,9512.823207190537,0.0,0.0,9512.823207190537,0,0.0,10150.837
2018-11-14 00:00:00+00:00,105.2,105.35,108.2293,66.61577,2.807857,0.5076923076923077,9512.823207190537,0.0,0.0,9512.823207190537,0,0.0,10252.044
2018-11-15 00:00:00+00:00,104.69,107.08,108.1624,55.55555,2.5235715,0.4854014598540146,9512.823207190537,0.0,0.0,9512.823207190537,0,0.0,10420.397
2018-11-16 00:00:00+00:00,106.62,107.17,108.1097,63.613056,2.583572,0.4854014598540146,9512.823207190537,0.0,0.0,9512.823207190537,0,0.0,10429.154
2018-11-19 00:00:00+00:00,107.36,107.7,108.0675,63.682846,2.417143,0.4854014598540146,9512.823207190537,0.0,0.0,9512.823207190537,0,0.0,10480.73
2018-11-20 00:00:00+00:00,106.34,105.88,108.0461,61.725044,2.3721433,0.4854014598540146,9512.823207190537,0.0,0.0,9512.823207190537,0,0.0,10303.619
2018-11-21 00:00:00+00:00,106.6,106.81,108.0057,52.501583,2.4135716,0.4854014598540146,9512.823207190537,0.0,0.0,9512.823207190537,0,0.0,10394.121
2018-11-23 00:00:00+00:00,106.07,107.29,107.9691,50.232246,2.4292858,0.4854014598540146,9512.823207190537,0.0,0.0,9512.823207190537,0,0.0,10440.832
2018-11-26 00:00:00+00:00,108.0,107.34,107.95405,51.23536,2.409286,0.4854014598540146,9512.823207190537,0.0,0.0,9512.823207190537,0,0.0,10445.697
2018-11-27 00:00:00+00:00,106.72,105.8,107.9289,52.97261,2.4121425,0.4854014598540146,9512.823207190537,0.0,0.0,9512.823207190537,0,0.0,10295.835
2018-11-28 00:00:00+00:00,106.05,107.64,107.888,45.000004,2.4657135,0.5076923076923077,9512.823207190537,0.0,0.0,9512.823207190537,0,0.0,10474.893
2018-11-29 00:00:00+00:00,108.28,108.47,107.8534,43.811394,2.4835706,0.4854014598540146,9512.823207190537,0.0,0.0,9512.823207190537,0,0.0,10555.664
2018-11-30 00:00:00+00:00,108.24,109.33,107.81415,49.34384,2.3385708,0.4854014598540146,9512.823207190537,0.0,0.0,9512.823207190537,0,0.0,10639.355
2018-12-03 00:00:00+00:00,110.38,110.56,107.77985,55.35008,2.2985709,0.4854014598540146,9512.823207190537,0.0,0.0,9512.823207190537,0,0.0,10759.051
2018-12-04 00:00:00+00:00,110.42,106.73,107.75185,68.34993,2.2564282,0.01,9512.823207190537,0.0,0.0,9512.823207190537,0,0.0,10386.338
2018-12-06 00:00:00+00:00,105.44,105.79,107.708496,57.202408,2.4142854,0.4854014598540146,9512.823207190537,0.0,0.0,9512.823207190537,0,0.0,10294.863
2018-12-07 00:00:00+00:00,106.17,103.23,107.65935,51.317375,2.4971428,0.4854014598540146,9512.823207190537,0.0,0.0,9512.823207190537,0,0.0,10045.738
2018-12-10 00:00:00+00:00,103.13,103.46,107.5962,39.018814,2.5842857,0.4854014598540146,9512.823207190537,0.0,0.0,9512.823207190537,0,0.0,10068.12
2018-12-11 00:00:00+00:00,105.15,103.04,107.5262,39.50197,2.6228573,0.5076923076923077,9512.823207190537,0.0,0.0,9512.823207190537,0,0.0,10027.249
2018-12-12 00:00:00+00:00,104.02,103.46,107.45375,36.7312,2.7150002,0.5076923076923077,9512.823207190537,0.0,0.0,9512.823207190537,0,0.0,10068.121
2018-12-13 00:00:00+00:00,103.65,100.9,107.3945,42.51237,2.6378577,0.553697435567775,9512.823207190537,0.0,0.0,9512.823207190537,0,0.0,9818.997
2018-12-14 00:00:00+00:00,99.94,100.14,107.3368,33.389526,2.7207146,0.59375,-9.512823207191104,9508.069172604235,0.0,9498.556349397044,1,96.9432144165039,9745.037
2018-12-17 00:00:00+00:00,100.03,97.13,107.28195,30.21579,2.8085713,0.4854014598540146,-9.512823207191104,9222.275945945925,0.0,9212.763122738734,0,96.9432144165039,9452.121
2018-12-18 00:00:00+00:00,97.8,96.7,107.21635,25.725128,2.9950001,0.59375,-9.512823207191104,9181.44823510229,0.0,9171.9354118951,0,96.9432144165039,9410.275
2018-12-19 00:00:00+00:00,97.93,96.43,107.13605,27.1586,3.0307148,0.59375,-9.512823207191104,9155.812530041027,0.0,9146.299706833835,0,96.9432144165039,9384.002
2018-12-20 00:00:00+00:00,97.48,97.07,107.04285,19.455015,3.0764291,0.59375,-9.512823207191104,9216.579449011377,0.0,9207.066625804186,0,96.9432144165039,9446.283
2018-12-21 00:00:00+00:00,97.36,96.32,106.9531,18.612297,3.1557148,0.4854014598540146,-9.512823207191104,9145.368734180203,0.0,9135.855910973012,0,96.9432144165039,9373.298
2018-12-24 00:00:00+00:00,96.04,95.6,106.8577,13.961173,3.2621434,0.59375,9053.878055794641,0.0,0.0,9053.878055794641,-1,0.0,9303.231
2018-12-26 00:00:00+00:00,95.84,99.27,106.74745,7.3545856,3.3078575,0.99,-9.053878055794485,9049.353379105089,0.0,9040.299501049294,1,90.706787109375,9660.375
2018-12-27 00:00:00+00:00,98.29,101.42,106.6615,28.538517,3.3578572,0.59375,-9.053878055794485,9245.344844109675,0.0,9236.29096605388,0,94.30821228027344,9869.6
2018-12-28 00:00:00+00:00,101.69,101.23,106.58825,38.246353,3.350714,0.4854014598540146,-9.053878055794485,9228.02485559368,0.0,9218.970977537885,0,96.38320922851562,9851.11
2018-12-31 00:00:00+00:00,101.82,102.23,106.5192,43.834766,3.1492856,0.5055913813398843,-9.053878055794485,9319.184048597868,0.0,9310.130170542074,0,96.38320922851562,9948.424
2019-01-02 00:00:00+00:00,101.03,101.69,106.45895,46.380234,3.075714,0.38461538461538464,-9.053878055794485,9269.95803818167,0.0,9260.904160125876,0,97.50607299804688,9895.874
2019-01-03 00:00:00+00:00,101.29,97.97,106.39275,46.054943,2.9778574,0.4854014598540146,-9.053878055794485,8930.84670729378,0.0,8921.792829237986,0,97.50607299804688,9533.866
2019-01-04 00:00:00+00:00,97.5,99.91,106.3165,36.550713,3.1450005,0.4854014598540146,9084.979683526066,0.0,0.0,9084.979683526066,-1,0.0,9722.655
2019-01-07 00:00:00+00:00,99.87,100.24,106.2468,47.49874,3.1628575,0.5076923076923077,9084.979683526066,0.0,0.0,9084.979683526066,0,0.0,9754.769
2019-01-08 00:00:00+00:00,100.74,101.07,106.17825,50.25826,3.1164289,0.4854014598540146,9084.979683526066,0.0,0.0,9084.979683526066,0,0.0,9835.539
2019-01-09 00:00:00+00:00,101.34,101.5,106.12705,61.466835,2.9878578,0.4854014598540146,9084.979683526066,0.0,0.0,9084.979683526066,0,0.0,9877.385
2019-01-10 00:00:00+00:00,101.25,102.65,106.08715,63.969746,2.9264293,0.4854014598540146,9084.979683526066,0.0,0.0,9084.979683526066,0,0.0,9989.295
2019-01-11 00:00:00+00:00,101.91,101.86,106.04075,67.22038,2.8014293,0.4854014598540146,9084.979683526066,0.0,0.0,9084.979683526066,0,0.0,9912.416
2019-01-14 00:00:00+00:00,101.29,101.96,105.9905,63.15212,2.6771436,0.4854014598540146,9084.979683526066,0.0,0.0,9084.979683526066,0,0.0,9922.147
2019-01-15 00:00:00+00:00,100.06,101.0,105.95045,66.05923,2.5642865,0.4854014598540146,9084.979683526066,0.0,0.0,9084.979683526066,0,0.0,9828.726
2019-01-16 00:00:00+00:00,101.38,102.54,105.89745,65.16855,2.5507147,0.4854014598540146,9084.979683526066,0.0,0.0,9084.979683526066,0,0.0,9978.591
2019-01-17 00:00:00+00:00,103.37,107.36,105.86885,60.433964,2.389286,0.4854014598540146,9084.979683526066,0.0,0.0,9084.979683526066,0,0.0,10447.644
2019-01-18 00:00:00+00:00,106.21,105.43,105.85475,66.19412,2.4992862,0.4854014598540146,9084.979683526066,0.0,0.0,9084.979683526066,0,0.0,10259.827
2019-01-22 00:00:00+00:00,104.87,104.35,105.82795,60.45816,2.562143,0.4854014598540146,9084.979683526066,0.0,0.0,9084.979683526066,0,0.0,10154.728
2019-01-23 00:00:00+00:00,104.31,102.05,105.79135,55.257923,2.587143,0.5076923076923077,9084.979683526066,0.0,0.0,9084.979683526066,0,0.0,9930.905
2019-01-24 00:00:00+00:00,101.77,102.22,105.75465,50.82117,2.7399995,0.4854014598540146,9084.979683526066,0.0,0.0,9084.979683526066,0,0.0,9947.449
2019-01-25 00:00:00+00:00,103.35,103.5,105.7177,61.567776,2.5385704,0.4854014598540146,9084.979683526066,0.0,0.0,9084.979683526066,0,0.0,10072.011
2019-01-28 00:00:00+00:00,102.89,103.7,105.6834,60.13551,2.387856,0.4854014598540146,9084.979683526066,0.0,0.0,9084.979683526066,0,0.0,10091.474
2019-01-29 00:00:00+00:00,103.76,104.48,105.6555,59.84073,2.2914276,0.4854014598540146,9084.979683526066,0.0,0.0,9084.979683526066,0,0.0,10167.379
2019-01-30 00:00:00+00:00,105.07,105.05,105.6277,59.726196,2.2507133,0.4854014598540146,9084.979683526066,0.0,0.0,9084.979683526066,0,0.0,10222.849
2019-01-31 00:00:00+00:00,104.33,105.44,105.60295,60.045284,2.272856,0.4854014598540146,9084.979683526066,0.0,0.0,9084.979683526066,0,0.0,10260.802
2019-02-01 00:00:00+00:00,105.64,105.77,105.5713,58.24956,2.2592845,0.38461538461538464,9084.979683526066,0.0,0.0,9084.979683526066,0,0.0,10292.915
2019-02-04 00:00:00+00:00,105.66,106.26,105.53475,61.884495,2.27857,0.4854014598540146,9084.979683526066,0.0,0.0,9084.979683526066,0,0.0,10340.599
2019-02-05 00:00:00+00:00,106.74,107.01,105.5001,62.76723,2.2828555,0.4854014598540146,9084.979683526066,0.0,0.0,9084.979683526066,0,0.0,10413.585
2019-02-06 00:00:00+00:00,106.51,106.1,105.48695,68.06976,2.205713,0.4854014598540146,9084.979683526066,0.0,0.0,9084.979683526066,0,0.0,10325.029
2019-02-07 00:00:00+00:00,105.64,104.85,105.4731,61.124992,2.1185706,0.4854014598540146,9084.979683526066,0.0,0.0,9084.979683526066,0,0.0,10203.387
2019-02-08 00:00:00+00:00,104.46,104.86,105.45295,39.90345,1.8835706,0.4854014598540146,9084.979683526066,0.0,0.0,9084.979683526066,0,0.0,10204.359
2019-02-11 00:00:00+00:00,105.09,104.72,105.4484,47.2883,1.7764276,0.4854014598540146,9084.979683526066,0.0,0.0,9084.979683526066,0,0.0,10190.736
2019-02-12 00:00:00+00:00,105.48,107.61,105.4326,51.93314,1.6942853,0.4854014598540146,9084.979683526066,0.0,0.0,9084.979683526066,0,0.0,10471.975
2019-02-13 00:00:00+00:00,108.0,107.89,105.43215,77.36218,1.625714,0.01,9084.979683526066,0.0,0.0,9084.979683526066,0,0.0,10499.223
2019-02-14 00:00:00+00:00,107.2,107.26,105.43175,77.60465,1.6492854,0.38461538461538464,9084.979683526066,0.0,0.0,9084.979683526066,0,0.0,10437.915
2019-02-15 00:00:00+00:00,108.4,109.11,105.43865,69.542625,1.6671426,0.09606655195040553,9084.979683526066,0.0,0.0,9084.979683526066,0,0.0,10617.946
2019-02-19 00:00:00+00:00,108.59,108.73,105.4496,74.001785,1.7121423,0.01,9084.979683526066,0.0,0.0,9084.979683526066,0,0.0,10580.968
2019-02-20 00:00:00+00:00,108.83,109.74,105.4647,69.549225,1.6921419,0.38461538461538464,9084.979683526066,0.0,0.0,9084.979683526066,0,0.0,10679.255
2019-02-21 00:00:00+00:00,109.53,110.13,105.4886,70.73386,1.7378561,0.4854014598540146,9084.979683526066,0.0,0.0,9084.979683526066,0,0.0,10717.207
2019-02-22 00:00:00+00:00,110.85,111.44,105.50725,70.73386,1.6985708,0.4854014598540146,9084.979683526066,0.0,0.0,9084.979683526066,0,0.0,10844.689
2019-02-25 00:00:00+00:00,112.0,112.32,105.5334,73.06756,1.7021425,0.4854014598540146,9084.979683526066,0.0,0.0,9084.979683526066,0,0.0,10930.325
2019-02-26 00:00:00+00:00,112.01,111.47,105.5616,73.895905,1.6807142,0.4854014598540146,9084.979683526066,0.0,0.0,9084.979683526066,0,0.0,10847.607
2019-02-27 00:00:00+00:00,111.25,112.17,105.5837,67.44915,1.638571,0.4854014598540146,9084.979683526066,0.0,0.0,9084.979683526066,0,0.0,10915.728
2019-02-28 00:00:00+00:00,112.19,111.97,105.614,74.14482,1.6514276,0.4854014598540146,9084.979683526066,0.0,0.0,9084.979683526066,0,0.0,10896.266
2019-03-01 00:00:00+00:00,112.73,112.76,105.6717,80.90284,1.5949991,0.4854014598540146,9084.979683526066,0.0,0.0,9084.979683526066,0,0.0,10973.145
2019-03-04 00:00:00+00:00,113.0,111.36,105.72065,82.11388,1.5835702,0.4854014598540146,9084.979683526066,0.0,0.0,9084.979683526066,0,0.0,10836.905
2019-03-05 00:00:00+00:00,111.32,110.75,105.7623,74.4838,1.7392839,0.4854014598540146,9084.979683526066,0.0,0.0,9084.979683526066,0,0.0,10777.544
2019-03-06 00:00:00+00:00,110.83,110.55,105.79855,63.918457,1.604284,0.4854014598540146,9084.979683526066,0.0,0.0,9084.979683526066,0,0.0,10758.082
2019-03-07 00:00:00+00:00,110.4,109.84,105.82925,61.875034,1.5785697,0.4854014598540146,9084.979683526066,0.0,0.0,9084.979683526066,0,0.0,10688.988
2019-03-08 00:00:00+00:00,109.01,109.63,105.8537,61.436153,1.5714275,0.4854014598540146,9084.979683526066,0.0,0.0,9084.979683526066,0,0.0,10668.552
2019-03-11 00:00:00+00:00,110.03,111.3,105.8767,52.69708,1.575713,0.4854014598540146,9084.979683526066,0.0,0.0,9084.979683526066,0,0.0,10831.067
2019-03-12 00:00:00+00:00,110.3,111.15,105.919,61.75663,1.604999,0.4854014598540146,9084.979683526066,0.0,0.0,9084.979683526066,0,0.0,10816.471
2019-03-13 00:00:00+00:00,111.59,111.33,105.9612,57.001007,1.552142,0.4854014598540146,9084.979683526066,0.0,0.0,9084.979683526066,0,0.0,10833.987
2019-03-14 00:00:00+00:00,111.04,109.68,106.00535,56.085213,1.5628558,0.4854014598540146,9084.979683526066,0.0,0.0,9084.979683526066,0,0.0,10673.418
2019-03-15 00:00:00+00:00,109.52,110.03,106.03675,41.372543,1.6249989,0.4854014598540146,9084.979683526066,0.0,0.0,9084.979683526066,0,0.0,10707.479
2019-03-18 00:00:00+00:00,110.28,110.95,106.0817,38.159256,1.6207134,0.4854014598540146,9084.979683526066,0.0,0.0,9084.979683526066,0,0.0,10797.007
2019-03-19 00:00:00+00:00,111.31,110.9,106.1293,47.330574,1.6578566,0.4854014598540146,9084.979683526066,0.0,0.0,9084.979683526066,0,0.0,10792.143
2019-03-20 00:00:00+00:00,110.85,110.82,106.1792,43.014324,1.6692854,0.4854014598540146,9084.979683526066,0.0,0.0,9084.979683526066,0,0.0,10784.356
2019-03-21 00:00:00+00:00,110.61,112.64,106.22325,43.58974,1.6928569,0.4854014598540146,9084.979683526066,0.0,0.0,9084.979683526066,0,0.0,10961.468
2019-03-22 00:00:00+00:00,110.4,106.69,106.2743,49.399986,1.7907143,0.4854014598540146,9084.979683526066,0.0,0.0,9084.979683526066,0,0.0,10382.449
2019-03-25 00:00:00+00:00,107.04,107.06,106.29525,33.9519,2.0121427,0.5076923076923077,9084.979683526066,0.0,0.0,9084.979683526066,0,0.0,10418.456
2019-03-26 00:00:00+00:00,107.7,108.36,106.3109,37.106907,2.041428,0.4854014598540146,9084.979683526066,0.0,0.0,9084.979683526066,0,0.0,10544.964
2019-03-27 00:00:00+00:00,108.61,110.08,106.33725,42.89422,2.0564282,0.4854014598540146,9084.979683526066,0.0,0.0,9084.979683526066,0,0.0,10712.345
2019-03-28 00:00:00+00:00,110.79,111.72,106.3669,50.73083,2.0728557,0.4854014598540146,9084.979683526066,0.0,0.0,9084.979683526066,0,0.0,10871.94
2019-03-29 00:00:00+00:00,112.0,112.87,106.40585,55.854355,2.0728557,0.4854014598540146,9084.979683526066,0.0,0.0,9084.979683526066,0,0.0,10983.853
2019-04-01 00:00:00+00:00,113.62,114.22,106.45255,54.529716,2.0442843,0.1766747265872841,9084.979683526066,0.0,0.0,9084.979683526066,0,0.0,11115.226
2019-04-02 00:00:00+00:00,114.43,114.24,106.50715,58.283867,2.0785697,0.10890699482221392,9084.979683526066,0.0,0.0,9084.979683526066,0,0.0,11117.172
2019-04-03 00:00:00+00:00,115.25,114.58,106.55855,57.920517,2.094999,0.01,9084.979683526066,0.0,0.0,9084.979683526066,0,0.0,11150.259
2019-04-04 00:00:00+00:00,115.34,115.0,106.60455,64.36109,2.03857,0.4854014598540146,9084.979683526066,0.0,0.0,9084.979683526066,0,0.0,11191.131
2019-04-05 00:00:00+00:00,115.08,114.96,106.65455,64.50673,2.0442836,0.4854014598540146,9084.979683526066,0.0,0.0,9084.979683526066,0,0.0,11187.237
2019-04-08 00:00:00+00:00,114.78,114.4,106.7087,62.338474,2.0171406,0.4854014598540146,9084.979683526066,0.0,0.0,9084.979683526066,0,0.0,11132.742
2019-04-09 00:00:00+00:00,113.83,114.28,106.755,60.441532,1.9771407,0.4854014598540146,9084.979683526066,0.0,0.0,9084.979683526066,0,0.0,11121.064
2019-04-10 00:00:00+00:00,114.66,114.9,106.8049,60.29762,1.9964262,0.38461538461538464,9084.979683526066,0.0,0.0,9084.979683526066,0,0.0,11181.399
2019-04-11 00:00:00+00:00,114.9,114.52,106.8523,57.2436,1.8714262,0.38461538461538464,9084.979683526066,0.0,0.0,9084.979683526066,0,0.0,11144.42
2019-04-12 00:00:00+00:00,115.4,115.6,106.89935,89.032845,1.5042833,0.38461538461538464,9084.979683526066,0.0,0.0,9084.979683526066,0,0.0,11249.52
2019-04-15 00:00:00+00:00,115.87,116.47,106.9482,89.75787,1.4885695,0.01,9084.979683526066,0.0,0.0,9084.979683526066,0,0.0,11334.182
2019-04-16 00:00:00+00:00,116.9,118.4,107.005,89.3307,1.4621408,0.01,9084.979683526066,0.0,0.0,9084.979683526066,0,0.0,11521.999
2019-04-17 00:00:00+00:00,118.7,117.39,107.0684,89.54368,1.4457124,0.01,9084.979683526066,0.0,0.0,9084.979683526066,0,0.0,11423.711
2019-04-18 00:00:00+00:00,119.78,119.86,107.1367,78.66527,1.416427,0.4854014598540146,9084.979683526066,0.0,0.0,9084.979683526066,0,0.0,11664.077
2019-04-22 00:00:00+00:00,118.65,117.24,107.2226,81.17747,1.6035701,0.4854014598540146,9084.979683526066,0.0,0.0,9084.979683526066,0,0.0,11409.113
2019-04-23 00:00:00+00:00,117.33,117.62,107.2988,62.099327,1.657856,0.4854014598540146,9084.979683526066,0.0,0.0,9084.979683526066,0,0.0,11446.094
2019-04-24 00:00:00+00:00,117.73,116.64,107.37285,63.161983,1.6849986,0.4854014598540146,9084.979683526066,0.0,0.0,9084.979683526066,0,0.0,11350.725
2019-04-25 00:00:00+00:00,116.31,115.53,107.44105,57.640926,1.6892847,0.4854014598540146,9084.979683526066,0.0,0.0,9084.979683526066,0,0.0,11242.706
2019-04-26 00:00:00+00:00,116.0,117.81,107.4991,51.87014,1.6971425,0.4854014598540146,9084.979683526066,0.0,0.0,9084.979683526066,0,0.0,11464.581
2019-04-29 00:00:00+00:00,117.99,117.11,107.56415,58.683712,1.822143,0.4854014598540146,9084.979683526066,0.0,0.0,9084.979683526066,0,0.0,11396.462
2019-04-30 00:00:00+00:00,117.14,117.5,107.63095,58.187294,1.8092853,0.4854014598540146,9084.979683526066,0.0,0.0,9084.979683526066,0,0.0,11434.414
2019-05-01 00:00:00+00:00,117.97,115.47,107.69925,59.57193,1.8049997,0.4854014598540146,9084.979683526066,0.0,0.0,9084.979683526066,0,0.0,11236.867
2019-05-02 00:00:00+00:00,115.12,116.76,107.75665,51.563354,1.9199998,0.4854014598540146,9084.979683526066,0.0,0.0,9084.979683526066,0,0.0,11362.401
2019-05-03 00:00:00+00:00,117.26,117.63,107.8286,55.85163,1.9864284,0.4854014598540146,9084.979683526066,0.0,0.0,9084.979683526066,0,0.0,11447.064
2019-05-06 00:00:00+00:00,116.0,116.29,107.8897,55.361855,1.9764284,0.4854014598540146,9084.979683526066,0.0,0.0,9084.979683526066,0,0.0,11316.664
2019-05-07 00:00:00+00:00,115.04,114.46,107.9374,49.536083,2.082143,0.4854014598540146,9084.979683526066,0.0,0.0,9084.979683526066,0,0.0,11138.58
2019-05-08 00:00:00+00:00,114.08,114.02,107.97775,39.79274,2.1228573,0.4854014598540146,9084.979683526066,0.0,0.0,9084.979683526066,0,0.0,11095.761
2019-05-09 00:00:00+00:00,112.77,112.88,108.02285,41.00373,2.093572,0.4854014598540146,9084.979683526066,0.0,0.0,9084.979683526066,0,0.0,10984.822
2019-05-10 00:00:00+00:00,112.55,112.24,108.0652,29.94252,1.9592857,0.4854014598540146,9084.979683526066,0.0,0.0,9084.979683526066,0,0.0,10922.542
2019-05-13 00:00:00+00:00,110.55,111.25,108.09615,33.78729,1.9349997,0.4854014598540146,9084.979683526066,0.0,0.0,9084.979683526066,0,0.0,10826.201
2019-05-14 00:00:00+00:00,111.41,111.56,108.106,30.130985,1.9399992,0.4854014598540146,9084.979683526066,0.0,0.0,9084.979683526066,0,0.0,10856.368
2019-05-15 00:00:00+00:00,111.17,111.94,108.1105,33.46352,1.9264281,0.4854014598540146,9084.979683526066,0.0,0.0,9084.979683526066,0,0.0,10893.349
2019-05-16 00:00:00+00:00,112.66,112.92,108.123,37.730694,1.932142,0.4854014598540146,9084.979683526066,0.0,0.0,9084.979683526066,0,0.0,10988.716
2019-05-17 00:00:00+00:00,111.96,111.77,108.1389,31.657898,1.8828555,0.4854014598540146,9084.979683526066,0.0,0.0,9084.979683526066,0,0.0,10876.805
2019-05-20 00:00:00+00:00,110.87,107.74,108.14445,30.624065,1.921427,0.4854014598540146,9084.979683526066,0.0,0.0,9084.979683526066,0,0.0,10484.629
2019-05-21 00:00:00+00:00,107.43,109.0,108.1345,21.986202,2.1278555,0.5076923076923077,9084.979683526066,0.0,0.0,9084.979683526066,0,0.0,10607.244
2019-05-22 00:00:00+00:00,108.29,108.48,108.1329,30.57056,2.1221411,0.4854014598540146,9084.979683526066,0.0,0.0,9084.979683526066,0,0.0,10556.641
2019-05-23 00:00:00+00:00,107.91,106.82,108.12055,23.929459,2.0828557,0.4854014598540146,9084.979683526066,0.0,0.0,9084.979683526066,0,0.0,10395.099
2019-05-24 00:00:00+00:00,107.87,107.75,108.10305,17.576488,2.16357,0.5076923076923077,9084.979683526066,0.0,0.0,9084.979683526066,0,0.0,10485.602
2019-05-28 00:00:00+00:00,107.51,107.51,108.092,23.739239,2.070713,0.4854014598540146,9084.979683526066,0.0,0.0,9084.979683526066,0,0.0,10462.246
2019-05-29 00:00:00+00:00,107.1,107.18,108.0833,26.31221,1.9621419,0.4854014598540146,9084.979683526066,0.0,0.0,9084.979683526066,0,0.0,10430.132
2019-05-30 00:00:00+00:00,107.16,107.24,108.07315,26.510998,1.9685701,0.4854014598540146,9084.979683526066,0.0,0.0,9084.979683526066,0,0.0,10435.971
2019-05-31 00:00:00+00:00,105.93,104.65,108.07205,29.080114,1.9064276,0.4854014598540146,9084.979683526066,0.0,0.0,9084.979683526066,0,0.0,10183.928
2019-06-03 00:00:00+00:00,104.66,107.78,108.0649,25.405056,1.9078566,0.59375,9084.979683526066,0.0,0.0,9084.979683526066,0,0.0,10488.522
2019-06-04 00:00:00+00:00,109.08,111.71,108.06955,40.125206,1.9899995,0.4854014598540146,-9.084979683526399,9080.43946379417,0.0,9071.354484110643,1,104.918212890625,10870.967
2019-06-05 00:00:00+00:00,112.38,112.35,108.09295,50.353943,2.1699994,0.4854014598540146,-9.084979683526399,9132.462021075484,0.0,9123.377041391957,0,105.73999786376953,10933.248
2019-06-06 00:00:00+00:00,112.91,112.99,108.1152,50.955704,2.2371423,0.4854014598540146,-9.084979683526399,9184.485411623607,0.0,9175.400431940081,0,105.83999633789062,10995.53
2019-06-07 00:00:00+00:00,113.56,113.99,108.13805,50.1658,2.167857,0.4854014598540146,-9.084979683526399,9265.771194190842,0.0,9256.686214507316,0,106.27857208251953,11092.844
2019-06-10 00:00:00+00:00,114.27,114.39,108.15935,55.295807,2.1700003,0.38461538461538464,9275.252791520124,0.0,0.0,9275.252791520124,-1,0.0,11131.77
2019-06-11 00:00:00+00:00,115.33,116.85,108.1759,69.18639,1.9478575,0.01,9275.252791520124,0.0,0.0,9275.252791520124,0,0.0,11371.162
2019-06-12 00:00:00+00:00,117.0,116.99,108.20715,71.18187,1.981429,0.4854014598540146,9275.252791520124,0.0,0.0,9275.252791520124,0,0.0,11384.785
2019-06-13 00:00:00+00:00,117.19,116.91,108.24325,73.44352,2.0228572,0.01,9275.252791520124,0.0,0.0,9275.252791520124,0,0.0,11377.001
2019-06-14 00:00:00+00:00,116.84,116.55,108.2747,80.44663,1.9585713,0.4854014598540146,9275.252791520124,0.0,0.0,9275.252791520124,0,0.0,11341.968
2019-06-17 00:00:00+00:00,116.79,114.93,108.3018,77.50004,1.9392853,0.4854014598540146,9275.252791520124,0.0,0.0,9275.252791520124,0,0.0,11184.318
2019-06-18 00:00:00+00:00,115.5,114.68,108.3271,71.34638,2.0128567,0.4854014598540146,9275.252791520124,0.0,0.0,9275.252791520124,0,0.0,11159.99
2019-06-19 00:00:00+00:00,115.18,115.66,108.3422,71.676315,2.013571,0.4854014598540146,9275.252791520124,0.0,0.0,9275.252791520124,0,0.0,11255.357
2019-06-20 00:00:00+00:00,117.0,115.19,108.3672,73.1065,2.053571,0.4854014598540146,9275.252791520124,0.0,0.0,9275.252791520124,0,0.0,11209.619
2019-06-21 00:00:00+00:00,115.43,116.07,108.39045,82.732925,2.066428,0.4854014598540146,9275.252791520124,0.0,0.0,9275.252791520124,0,0.0,11295.256
2019-06-24 00:00:00+00:00,116.0,116.9,108.4214,79.9278,1.9385709,0.4854014598540146,9275.252791520124,0.0,0.0,9275.252791520124,0,0.0,11376.027
2019-06-25 00:00:00+00:00,117.02,116.27,108.452896,74.13955,1.758571,0.4854014598540146,9275.252791520124,0.0,0.0,9275.252791520124,0,0.0,11314.719
2019-06-26 00:00:00+00:00,116.19,115.53,108.47425,68.24952,1.6871425,0.4854014598540146,9275.252791520124,0.0,0.0,9275.252791520124,0,0.0,11242.707
2019-06-27 00:00:00+00:00,116.21,115.89,108.49435,61.715866,1.701428,0.4854014598540146,9275.252791520124,0.0,0.0,9275.252791520124,0,0.0,11277.74
2019-06-28 00:00:00+00:00,116.15,116.71,108.51335,59.31373,1.6599993,0.4854014598540146,9275.252791520124,0.0,0.0,9275.252791520124,0,0.0,11357.537
2019-07-01 00:00:00+00:00,117.66,118.63,108.53395,60.922783,1.6557138,0.4854014598540146,9275.252791520124,0.0,0.0,9275.252791520124,0,0.0,11544.38
2019-07-02 00:00:00+00:00,118.88,118.09,108.56695,58.829357,1.5849997,0.01,9275.252791520124,0.0,0.0,9275.252791520124,0,0.0,11491.83
2019-07-03 00:00:00+00:00,117.81,119.08,108.59265,55.24808,1.5578569,0.4854014598540146,9275.252791520124,0.0,0.0,9275.252791520124,0,0.0,11588.172
2019-07-05 00:00:00+00:00,118.12,117.96,108.6272,59.52588,1.5535715,0.044837782718189396,9275.252791520124,0.0,0.0,9275.252791520124,0,0.0,11479.179
2019-07-08 00:00:00+00:00,117.5,116.38,108.65205,55.802444,1.6271428,0.4854014598540146,9275.252791520124,0.0,0.0,9275.252791520124,0,0.0,11325.421
2019-07-09 00:00:00+00:00,116.03,115.94,108.6676,55.986767,1.672857,0.4854014598540146,9275.252791520124,0.0,0.0,9275.252791520124,0,0.0,11282.604
2019-07-10 00:00:00+00:00,116.5,115.41,108.67205,55.121956,1.6578566,0.4854014598540146,9275.252791520124,0.0,0.0,9275.252791520124,0,0.0,11231.028
2019-07-11 00:00:00+00:00,115.43,116.0,108.6695,48.94515,1.6599998,0.4854014598540146,9275.252791520124,0.0,0.0,9275.252791520124,0,0.0,11288.442
2019-07-12 00:00:00+00:00,116.28,117.04,108.6696,53.38345,1.5607141,0.4854014598540146,9275.252791520124,0.0,0.0,9275.252791520124,0,0.0,11389.648
2019-07-15 00:00:00+00:00,117.15,117.71,108.69135,53.998356,1.582143,0.4854014598540146,9275.252791520124,0.0,0.0,9275.252791520124,0,0.0,11454.85
2019-07-16 00:00:00+00:00,117.93,117.85,108.7222,53.38345,1.5721425,0.4854014598540146,9275.252791520124,0.0,0.0,9275.252791520124,0,0.0,11468.474
2019-07-17 00:00:00+00:00,117.99,116.61,108.7595,56.881542,1.5399992,0.4854014598540146,9275.252791520124,0.0,0.0,9275.252791520124,0,0.0,11347.804
2019-07-18 00:00:00+00:00,114.99,117.0,108.7976,54.507523,1.5842851,0.4854014598540146,9275.252791520124,0.0,0.0,9275.252791520124,0,0.0,11385.757
2019-07-19 00:00:00+00:00,118.13,117.51,108.83695,54.621155,1.7992853,0.4854014598540146,9275.252791520124,0.0,0.0,9275.252791520124,0,0.0,11435.387
2019-07-22 00:00:00+00:00,117.54,116.95,108.87575,53.418816,1.8514279,0.4854014598540146,9275.252791520124,0.0,0.0,9275.252791520124,0,0.0,11380.891
2019-07-23 00:00:00+00:00,117.48,118.96,108.90945,41.87621,1.8278563,0.4854014598540146,9275.252791520124,0.0,0.0,9275.252791520124,0,0.0,11576.493
2019-07-24 00:00:00+00:00,118.66,118.1,108.9606,53.68333,1.8571423,0.4854014598540146,9275.252791520124,0.0,0.0,9275.252791520124,0,0.0,11492.803
2019-07-25 00:00:00+00:00,118.23,118.14,109.0088,45.80478,1.8864282,0.4854014598540146,9275.252791520124,0.0,0.0,9275.252791520124,0,0.0,11496.695
2019-07-26 00:00:00+00:00,118.13,117.94,109.0594,50.84906,1.8485712,0.4854014598540146,9275.252791520124,0.0,0.0,9275.252791520124,0,0.0,11477.233
2019-07-29 00:00:00+00:00,117.69,118.43,109.1012,58.459904,1.7435712,0.4854014598540146,9275.252791520124,0.0,0.0,9275.252791520124,0,0.0,11524.917
2019-07-30 00:00:00+00:00,117.8,118.96,109.20055,63.430412,1.7842859,0.34107344107546317,9275.252791520124,0.0,0.0,9275.252791520124,0,0.0,11576.494
2019-07-31 00:00:00+00:00,118.89,117.39,109.29735,69.14777,1.802857,0.01,9275.252791520124,0.0,0.0,9275.252791520124,0,0.0,11423.711
2019-08-01 00:00:00+00:00,117.39,115.67,109.4024,56.780483,1.9071432,0.4854014598540146,9275.252791520124,0.0,0.0,9275.252791520124,0,0.0,11256.33
2019-08-02 00:00:00+00:00,115.65,114.17,109.5053,43.732834,2.0071433,0.4854014598540146,9275.252791520124,0.0,0.0,9275.252791520124,0,0.0,11110.358
2019-08-05 00:00:00+00:00,112.92,110.96,109.5954,34.94898,2.149286,0.59375,9275.252791520124,0.0,0.0,9275.252791520124,0,0.0,10797.9795
2019-08-06 00:00:00+00:00,111.49,110.98,109.6593,26.770065,2.3885722,0.4854014598540146,-9.27525279151996,9270.617482778736,0.0,9261.342229987216,1,104.51213836669922,10799.927
2019-08-07 00:00:00+00:00,110.05,112.86,109.7236,29.316702,2.4007149,0.5076923076923077,-9.27525279151996,9427.661721364602,0.0,9418.386468573082,0,104.51213836669922,10982.877
2019-08-08 00:00:00+00:00,114.58,116.65,109.79295,36.291397,2.3728573,0.4854014598540146,-9.27525279151996,9744.256699009506,0.0,9734.981446217986,0,105.65785217285156,11351.698
2019-08-09 00:00:00+00:00,115.42,115.33,109.86925,47.6605,2.5171432,0.4854014598540146,-9.27525279151996,9633.991838018846,0.0,9624.716585227327,0,109.53143310546875,11223.245
2019-08-12 00:00:00+00:00,114.83,112.55,109.9376,45.768036,2.542143,0.5076923076923077,-9.27525279151996,9401.767216292978,0.0,9392.491963501458,0,109.53143310546875,10952.711
2019-08-13 00:00:00+00:00,112.23,113.09,109.9972,33.90257,2.6135716,0.4854014598540146,-9.27525279151996,9446.875168071645,0.0,9437.599915280125,0,109.53143310546875,11005.26
2019-08-14 00:00:00+00:00,111.26,110.22,110.07375,37.212852,2.7085712,0.4854014598540146,-9.27525279151996,9207.132475716715,0.0,9197.857222925195,0,109.53143310546875,10725.968
2019-08-15 00:00:00+00:00,110.33,109.62,110.1063,32.33719,2.8321424,0.4854014598540146,-9.27525279151996,9157.012229194603,0.0,9147.736976403083,0,109.53143310546875,10667.579
2019-08-16 00:00:00+00:00,109.14,110.72,110.14025,31.770365,2.8821428,0.4854014598540146,9225.75131735529,0.0,0.0,9225.75131735529,-1,0.0,10774.624
2019-08-19 00:00:00+00:00,111.98,111.62,110.1794,33.546726,2.9285715,0.5,9225.75131735529,0.0,0.0,9225.75131735529,0,0.0,10862.207
2019-08-20 00:00:00+00:00,111.2,110.3,110.2164,34.57983,2.927857,0.4854014598540146,9225.75131735529,0.0,0.0,9225.75131735529,0,0.0,10733.752
2019-08-21 00:00:00+00:00,111.41,110.7,110.24245,34.946922,2.850714,0.4854014598540146,9225.75131735529,0.0,0.0,9225.75131735529,0,0.0,10772.678
2019-08-22 00:00:00+00:00,110.87,110.1,110.26225,38.8214,2.7335713,0.4854014598540146,9225.75131735529,0.0,0.0,9225.75131735529,0,0.0,10714.289
2019-08-23 00:00:00+00:00,109.66,106.54,110.2782,40.45944,2.6271434,0.4854014598540146,9225.75131735529,0.0,0.0,9225.75131735529,0,0.0,10367.852
2019-08-26 00:00:00+00:00,107.39,107.17,110.27865,39.806267,2.601429,0.5076923076923077,9225.75131735529,0.0,0.0,9225.75131735529,0,0.0,10429.159
2019-08-27 00:00:00+00:00,108.16,107.41,110.2777,41.453545,2.5650003,0.4854014598540146,9225.75131735529,0.0,0.0,9225.75131735529,0,0.0,10452.515
2019-08-28 00:00:00+00:00,107.08,109.03,110.2671,36.803867,2.4078577,0.4854014598540146,9225.75131735529,0.0,0.0,9225.75131735529,0,0.0,10610.163
2019-08-29 00:00:00+00:00,110.39,110.14,110.2689,29.38308,2.3100002,0.5076923076923077,9225.75131735529,0.0,0.0,9225.75131735529,0,0.0,10718.183
2019-08-30 00:00:00+00:00,111.15,110.79,110.28105,35.79636,2.3142865,0.4854014598540146,9225.75131735529,0.0,0.0,9225.75131735529,0,0.0,10781.436
2019-09-03 00:00:00+00:00,109.78,110.43,110.308,44.54769,2.1971436,0.4854014598540146,9225.75131735529,0.0,0.0,9225.75131735529,0,0.0,10746.402
2019-09-04 00:00:00+00:00,111.42,111.52,110.3386,41.66667,2.112144,0.4854014598540146,9225.75131735529,0.0,0.0,9225.75131735529,0,0.0,10852.476
2019-09-05 00:00:00+00:00,112.91,113.34,110.36945,54.583908,1.98643,0.4854014598540146,9225.75131735529,0.0,0.0,9225.75131735529,0,0.0,11029.588
2019-09-06 00:00:00+00:00,114.2,115.78,110.40075,62.07791,2.0400014,0.4854014598540146,9225.75131735529,0.0,0.0,9225.75131735529,0,0.0,11267.034
2019-09-09 00:00:00+00:00,116.2,116.51,110.4438,65.1135,2.0742874,0.38461538461538464,9225.75131735529,0.0,0.0,9225.75131735529,0,0.0,11338.073
2019-09-10 00:00:00+00:00,116.41,117.27,110.48785,64.755585,2.0557158,0.4854014598540146,9225.75131735529,0.0,0.0,9225.75131735529,0,0.0,11412.031
2019-09-11 00:00:00+00:00,117.25,117.68,110.5448,71.76765,2.0335727,0.4854014598540146,9225.75131735529,0.0,0.0,9225.75131735529,0,0.0,11451.931
